Point ID,Activation,Points_0,Points_1,Points_2
0,17,53.781,40.196,233.48
1,17,53.955,39.983,233.47
2,17,53.782,40.2,233.87
3,17,53.951,39.989,233.87
4,17,54.322,39.541,234.66
5,17,54.33,39.551,234.96
6,16,55.934,37.954,231.61
7,16,56.151,37.77,231.44
8,16,55.967,37.984,231.29
9,16,55.488,38.311,232.32
10,16,55.679,38.108,232.29
11,16,55.302,38.519,232.28
12,16,55.469,38.28,232.71
13,16,55.41,38.206,234.29
14,16,55.593,37.993,234.29
15,16,55.764,37.777,234.68
16,16,55.403,38.202,234.68
17,17,54.679,39.079,234.69
18,17,54.504,39.306,234.69
19,15,52.662,41.884,229.92
20,15,52.621,41.842,230.3
21,15,52.847,41.674,229.88
22,15,52.807,41.628,230.27
23,15,52.438,42.061,230.3
24,15,52.351,41.987,233.48
25,15,52.569,41.757,233.9
26,15,52.203,42.223,233.86
27,15,52.381,41.998,233.87
28,14,51.025,43.837,232.28
29,14,50.886,44.076,232.28
30,14,51.027,43.846,232.68
31,14,50.867,44.125,232.72
32,16,54.701,39.11,235.45
33,16,54.529,39.354,235.5
34,16,54.724,39.132,235.75
35,16,54.589,39.355,235.9
36,17,57.887,37.099,240.96
37,16,55.479,39.483,239.05
38,16,55.305,39.757,239.1
39,16,55.551,39.53,239.34
40,16,55.749,39.342,239.52
41,16,55.823,39.421,239.88
42,16,55.431,39.779,239.49
43,16,55.193,39.995,239.24
44,16,55.672,39.66,239.92
45,16,55.617,39.596,239.65
46,17,57.111,38.319,241.35
47,17,56.999,38.56,241.5
48,16,55.829,39.841,240.68
49,16,55.664,40.123,240.74
50,16,55.892,39.903,240.96
51,16,55.785,40.153,241.11
52,16,56.174,39.345,240.71
53,16,56.008,39.61,240.74
54,16,56.234,39.449,241.06
55,16,56.416,39.216,241.13
56,17,57.752,37.348,241.11
57,17,57.948,37.163,241.27
58,15,52.341,42.754,236.12
59,15,52.226,43.01,236.26
60,15,52.05,43.316,236.31
61,15,52.27,43.095,236.56
62,16,54.214,40.971,238.29
63,16,54.052,41.242,238.32
64,15,52.682,43.095,237.77
65,15,53.028,42.607,237.88
66,15,53.078,42.694,238.17
67,15,53.254,42.513,238.34
68,15,53.202,42.429,238.05
69,15,52.856,42.914,237.94
70,14,51.091,45.502,237.34
71,14,51.43,45.003,237.46
72,14,51.481,45.095,237.76
73,14,51.19,45.211,237.13
74,16,54.269,41.08,238.65
75,16,54.333,41.143,238.94
76,15,53.935,41.545,238.54
77,15,54.106,41.369,238.7
78,15,53.824,41.802,238.68
79,15,53.998,41.624,238.85
80,15,54.17,41.734,239.52
81,15,54.23,41.844,239.86
82,15,54.008,42.005,239.54
83,15,53.897,42.304,239.75
84,13,51.081,46.697,239.37
85,13,51.246,46.513,239.54
86,13,51.481,46.289,239.85
87,13,51.337,46.568,239.89
88,13,51.545,46.353,240.13
89,14,52.289,45.916,241.36
90,14,52.468,45.738,241.53
91,14,52.19,46.175,241.49
92,16,54.611,40.571,238.69
93,15,54.628,42.202,241.47
94,15,54.457,42.516,241.54
95,18,59.054,36.278,242.24
96,18,58.864,36.541,242.3
97,18,59.14,36.336,242.53
98,18,59.014,36.576,242.67
99,18,58.943,36.947,243.11
100,18,59.045,37.064,243.44
101,18,59.143,37.144,243.71
102,18,59.254,36.856,243.5
103,17,60.221,36.255,244.18
104,17,60.098,36.516,244.33
105,17,60.328,36.357,244.46
106,17,57.181,38.381,241.65
107,16,56.224,40.198,242.27
108,16,56.287,40.295,242.56
109,17,57.42,40.172,244.66
110,17,57.832,37.844,242.27
111,17,58.026,37.623,242.33
112,17,57.655,38.12,242.34
113,17,57.912,37.907,242.55
114,17,57.75,39.747,244.7
115,17,57.483,40.3,244.95
116,17,57.859,39.861,245.05
117,17,57.963,39.573,244.85
118,17,57.62,40.02,244.83
119,16,58.629,39.426,245.88
120,16,58.824,39.218,245.94
121,16,58.739,39.156,245.68
122,14,52.367,45.999,241.67
123,16,55.686,41.345,242.71
124,16,55.819,41.391,243.07
125,16,55.465,41.881,242.97
126,16,55.65,41.707,243.14
127,16,56.053,40.509,242.34
128,15,54.687,42.298,241.76
129,15,54.587,42.549,241.9
130,16,55.87,41.868,243.84
131,16,55.96,41.936,244.12
132,16,56.563,40.546,243.51
133,16,56.664,40.654,243.85
134,16,56.44,40.83,243.63
135,16,56.165,41.752,244.31
136,16,55.707,42.162,243.89
137,15,57.93,41.138,247.36
138,15,57.812,41.375,247.51
139,15,57.641,41.636,247.55
140,15,57.585,41.59,247.27
141,15,55.405,43.765,245.49
142,15,55.25,44.035,245.53
143,15,55.152,44.334,245.74
144,15,55.459,43.88,245.78
145,15,55.644,43.709,245.95
146,14,58.201,41.805,250.31
147,14,58.371,41.583,250.35
148,14,58.247,41.843,250.69
149,14,58.42,41.61,250.71
150,14,55.482,45.481,248.67
151,14,55.645,45.231,248.75
152,14,55.34,45.756,248.72
153,14,55.21,46.015,248.76
154,14,55.528,45.528,248.97
155,13,56.855,44.438,252.71
156,13,57.034,44.248,253.11
157,13,56.729,44.723,252.97
158,13,56.87,44.528,253.13
159,18,61.939,32.344,232
160,18,61.92,32.332,232.31
161,18,62.153,32.148,232.26
162,18,62.154,32.109,232.65
163,20,68.682,28.343,232.32
164,20,68.665,28.321,232.7
165,20,68.407,28.463,232.28
166,20,68.117,28.554,232.68
167,21,70.69,27.561,240.66
168,21,70.995,27.432,240.69
169,21,71.289,27.309,240.69
170,21,70.703,27.564,240.97
171,18,63.103,33.511,244.54
172,18,62.954,33.768,244.7
173,18,62.842,33.665,244.4
174,18,65.489,33.48,247.77
175,18,65.336,33.688,247.93
176,18,65.745,33.36,247.92
177,20,67.722,29.395,243.51
178,20,67.821,29.439,243.87
179,20,67.584,29.612,243.94
180,20,67.532,29.555,243.67
181,18,65.571,33.575,248.07
182,18,62.153,34.563,244.7
183,18,62.26,34.67,244.98
184,18,62.406,34.418,244.84
185,17,61.49,36.301,246.17
186,17,61.227,36.432,245.93
187,17,61.099,36.706,246.16
188,17,61.339,36.545,246.32
189,18,63.872,35.492,249.47
190,18,62.946,36.181,249.12
191,18,63.019,36.242,249.51
192,18,63.657,35.685,249.51
193,18,62.813,36.442,249.54
194,18,62.766,36.397,249.28
195,18,63.912,35.552,249.76
196,18,63.499,35.906,249.77
197,18,64.724,34.776,249.36
198,18,64.965,34.649,249.51
199,18,64.786,34.836,249.67
200,17,61.777,37.399,249.52
201,16,61.987,37.21,249.56
202,16,61.579,37.6,249.56
203,17,61.836,37.451,249.89
204,19,64.673,35.494,251.87
205,19,64.935,35.313,251.93
206,19,64.711,35.527,252.17
207,19,64.932,35.397,252.33
208,11,46.942,53.767,236.68
209,11,47.104,53.5,236.95
210,11,47.06,53.795,236.99
211,11,47.228,53.327,237.15
212,10,47.254,55.738,238.37
213,10,47.205,56.115,238.38
214,9,46.954,56.959,237.9
215,9,47.052,56.954,238.29
216,9,46.9,57.339,237.92
217,9,46.979,57.363,238.28
218,10,47.424,55.357,238.68
219,10,47.356,55.762,238.68
220,10,47.831,55.76,239.86
221,10,47.76,56.165,239.86
222,10,47.927,55.903,240.13
223,10,47.892,56.202,240.16
224,10,47.845,56.568,240.19
225,9,47.709,58.963,240.69
226,9,47.555,58.921,240.45
227,9,47.52,59.195,240.47
228,13,48.601,48.219,231.46
229,13,48.605,48.168,231.85
230,13,48.464,48.457,231.47
231,13,48.294,48.696,231.9
232,13,49.027,47.434,232.27
233,13,49.171,47.183,232.27
234,13,49.031,47.43,232.67
235,13,48.883,47.676,232.26
236,13,48.275,48.689,232.29
237,13,48.115,48.96,232.29
238,13,48.264,48.687,232.68
239,13,48.104,48.954,232.68
240,13,48.109,48.959,233.47
241,13,48.286,48.707,233.86
242,13,48.125,48.969,233.87
243,13,48.307,48.725,234.24
244,13,49.516,47.938,236.93
245,13,49.407,48.2,237.08
246,13,49.461,48.293,237.37
247,13,49.685,47.758,237.1
248,13,50.297,47.109,237.76
249,13,50.466,46.921,237.94
250,13,50.368,47.174,238.06
251,13,50.983,46.95,239.51
252,13,51.069,47.485,240.58
253,13,50.981,47.753,240.71
254,13,50.821,48.09,240.75
255,13,50.762,47.991,240.47
256,11,48.278,51.818,238.58
257,11,48.206,52.167,238.68
258,11,48.424,51.729,238.83
259,11,48.354,51.996,238.89
260,10,48.149,56.16,240.68
261,10,48.026,56.146,240.42
262,8,47.462,59.818,240.53
263,8,47.435,60.205,240.57
264,8,47.266,60.194,240.34
265,11,47.405,60.603,240.61
266,11,47.378,60.996,240.63
267,11,47.581,60.591,240.84
268,11,47.549,60.988,240.85
269,11,47.864,61.789,241.36
270,15,52.319,47.511,243.34
271,15,52.495,47.335,243.52
272,15,52.718,47.11,243.75
273,15,52.641,47.388,243.87
274,16,52.894,46.934,243.93
275,16,52.813,47.211,244.05
276,15,52.185,48.951,244.32
277,15,52.269,49.081,244.58
278,15,52.348,48.789,244.51
279,11,50.656,53.002,244.19
280,11,50.813,52.923,244.44
281,14,53.838,47.782,247.09
282,14,53.702,48.127,247.13
283,14,53.89,47.885,247.38
284,14,53.812,48.158,247.52
285,11,51.795,50.957,245.11
286,11,51.875,51.087,245.39
287,11,51.949,50.789,245.31
288,10,49.743,54.163,243.09
289,10,49.668,54.549,243.12
290,10,48.882,55.348,241.93
291,10,49.074,54.999,242.18
292,10,49.041,55.366,242.26
293,10,48.979,55.776,242.27
294,10,49.884,54.213,243.37
295,10,49.821,54.576,243.41
296,11,50.604,53.362,244.28
297,11,50.758,53.197,244.49
298,10,50.605,54.152,244.69
299,10,50.525,54.55,244.72
300,10,49.265,56.938,243.15
301,10,48.893,59.359,242.74
302,10,49.03,59.355,243.02
303,10,49.44,56.567,243.41
304,10,49.426,56.95,243.48
305,10,49.535,57.1,243.74
306,10,49.16,59.309,243.29
307,10,50.698,54.293,244.96
308,10,50.828,54.124,245.17
309,12,53.529,49.904,249.37
310,12,53.65,49.697,249.54
311,12,53.072,50.655,248.68
312,13,52.961,50.971,248.72
313,13,52.849,51.307,248.77
314,12,53.363,50.173,249.1
315,12,53.125,50.703,248.97
316,12,53.45,50.182,249.5
317,12,52.338,52.309,248.17
318,12,52.458,52.11,248.37
319,12,52.415,52.008,248.07
320,11,52.812,51.682,249.18
321,11,52.888,51.713,249.54
322,11,52.798,51.993,249.57
323,11,52.749,51.947,249.3
324,11,53.062,52.979,252.31
325,11,53.104,53.062,252.68
326,11,53.142,53.105,252.97
327,13,54.702,47.1,248.98
328,13,54.605,47.364,249.13
329,13,54.787,47.187,249.56
330,13,54.747,47.151,249.29
331,12,54.789,47.982,251.56
332,12,54.955,47.761,251.91
333,12,54.705,48.283,251.86
334,12,54.836,48.02,251.92
335,12,54.679,48.669,252.68
336,12,54.808,48.407,252.76
337,12,54.776,48.37,252.48
338,12,54.554,48.974,252.71
339,10,51.815,55.394,249.47
340,10,51.746,55.767,249.51
341,11,52.208,54.594,250.29
342,11,52.346,54.301,250.58
343,11,52.297,54.598,250.68
344,11,52.342,54.694,250.98
345,10,51.953,55.115,249.76
346,10,51.901,55.405,249.81
347,9,51.113,57.082,248.19
348,10,51.085,57.385,248.27
349,10,51.018,57.785,248.26
350,9,51.146,57.506,248.56
351,11,52.955,53.361,252.31
352,11,52.351,56.286,252.59
353,11,52.735,54.69,252.99
354,11,52.817,54.481,253.19
355,11,52.792,54.382,252.9
356,11,52.476,56.12,253.16
357,11,52.592,55.765,253.5
358,11,52.528,56.154,253.53
359,11,52.235,56.597,252.28
360,11,52.313,56.592,252.69
361,11,52.235,57.001,252.69
362,9,51.974,58.9,252.83
363,11,52.421,56.483,253.2
364,9,52.072,58.568,253.14
365,9,52.026,58.951,253.17
366,9,51.984,59.337,253.2
367,10,48.882,59.744,242.76
368,11,48.208,61.372,241.83
369,11,48.051,61.387,241.59
370,11,48.209,61.76,241.88
371,8,49.536,62.301,244.55
372,8,49.53,62.609,244.56
373,8,49.626,62.137,244.78
374,7,49.52,64.981,244.56
375,7,49.384,65.38,244.24
376,7,49.383,65.781,244.24
377,7,49.521,65.382,244.56
378,7,49.522,65.783,244.56
379,8,49.638,62.568,244.84
380,7,49.636,64.583,244.86
381,7,49.746,64.986,245.13
382,7,49.639,64.983,244.86
383,6,50.457,65.793,247.18
384,6,50.554,65.775,247.51
385,6,48.505,67.79,242.33
386,6,48.505,68.184,242.33
387,6,48.629,67.789,242.62
388,6,48.631,68.183,242.62
389,6,49.251,68.63,243.94
390,6,49.29,69.012,243.94
391,6,49.394,68.597,244.24
392,6,49.439,69.007,244.26
393,5,49.077,69.354,243.39
394,5,49.111,69.652,243.35
395,5,49.326,69.4,243.91
396,5,49.206,69.413,243.65
397,6,49.439,70.159,243.8
398,6,49.497,70.449,243.75
399,6,49.705,70.198,244.31
400,6,49.583,70.243,244.05
401,6,50.482,66.189,247.16
402,6,50.582,66.174,247.49
403,5,50.692,71.246,245.34
404,4,50.86,71.819,245.12
405,4,50.767,71.942,244.85
406,4,51.02,72.156,245.07
407,5,50.876,71.415,245.51
408,5,50.781,71.541,245.24
409,4,51.021,71.756,245.46
410,4,50.896,70.992,245.89
411,4,51.035,71.352,245.85
412,4,51.044,70.941,246.2
413,4,51.125,71.219,246.13
414,8,51.229,61.744,250.4
415,8,51.217,62.133,250.39
416,8,51.144,61.973,250.13
417,8,51.48,65.789,250.68
418,9,51.665,62.58,251.98
419,9,51.59,62.581,251.7
420,9,51.748,62.58,252.3
421,8,52.042,62.578,253.61
422,9,51.669,62.98,251.98
423,8,51.735,65.791,251.52
424,8,51.851,65.795,251.89
425,8,52.016,65.833,252.39
426,8,51.941,63.254,252.98
427,8,52.061,62.984,253.58
428,8,52.001,62.987,253.3
429,8,52.084,63.38,253.55
430,8,52.008,63.416,253.21
431,8,52.283,63.798,254.32
432,8,52.222,64.968,253.46
433,8,52.175,65.381,253.1
434,8,52.281,65.37,253.48
435,8,52.305,65.673,253.39
436,7,52.353,64.785,254.14
437,7,52.429,65.022,254.41
438,7,52.383,65.056,254.1
439,7,52.42,65.431,253.99
440,5,51.322,67.79,249.13
441,5,51.387,68.167,249.09
442,5,51.437,67.791,249.5
443,5,51.486,68.153,249.41
444,8,51.406,66.179,250.26
445,8,51.503,66.158,250.6
446,8,51.534,66.456,250.57
447,8,51.571,65.97,250.91
448,7,51.681,66.212,251.17
449,8,51.599,66.248,250.88
450,7,51.725,66.595,251.12
451,5,52.234,70.57,249.5
452,5,52.303,70.856,249.38
453,5,52.289,70.465,249.79
454,5,52.368,70.763,249.69
455,8,51.776,66.186,251.49
456,7,51.84,66.594,251.49
457,8,51.875,66.163,251.81
458,8,51.949,65.977,252.12
459,8,52.068,66.217,252.37
460,8,51.978,66.252,252.09
461,8,52.44,68.658,251.95
462,8,52.471,68.224,252.34
463,8,52.399,68.362,252.05
464,8,52.552,68.598,252.29
465,15,101.1,68.74,228.63
466,15,100.93,69.002,228.65
467,15,100.28,69.528,226.26
468,15,100.14,69.777,226.27
469,15,99.992,70.055,226.28
470,15,100.31,69.544,226.65
471,14,99.286,71.339,226.26
472,14,99.147,71.58,225.86
473,14,99.148,71.585,226.25
474,14,99.012,71.825,226.26
475,15,100.77,69.194,228.49
476,15,100.66,69.43,228.64
477,14,98.856,72.103,227.87
478,14,98.859,72.114,228.27
479,47,98.034,31.418,231.87
480,47,98.16,31.709,231.86
481,47,98.268,31.988,231.87
482,47,98.007,31.458,232.24
483,46,100.06,31.944,237.6
484,46,99.726,31.892,237.88
485,46,100.07,31.939,237.89
486,46,100.35,31.988,237.9
487,46,101.97,33.056,237.89
488,46,101.85,32.88,238.31
489,46,101.97,33.07,238.18
490,46,101.95,33.125,238.46
491,45,95.962,37.606,231.32
492,45,96.062,37.496,231.62
493,45,96.282,37.761,231.86
494,45,96.124,37.79,231.53
495,47,95.732,36.568,232.7
496,47,95.747,36.441,233.08
497,46,95.864,36.398,233.38
498,46,94.571,35.002,234.31
499,46,94.454,34.747,234.44
500,46,94.683,34.884,234.59
501,46,94.806,35.132,234.45
502,46,96.037,36.613,233.13
503,45,96.557,36.523,234.3
504,45,96.441,36.212,234.7
505,45,96.378,36.298,234.44
506,45,96.654,36.43,234.65
507,45,96.159,39.346,232.31
508,45,96.248,39.456,232.66
509,45,96.36,39.165,232.47
510,46,94.516,44.52,231.78
511,46,94.787,44.388,231.67
512,46,94.954,44.555,231.42
513,46,94.668,44.676,231.54
514,46,94.848,46.125,230.54
515,46,95.124,45.919,230.41
516,46,95.047,46.185,230.34
517,45,95.481,40.724,233.7
518,45,95.748,40.676,233.77
519,45,95.693,40.483,233.59
520,45,95.341,40.979,233.79
521,44,96.717,41.547,234.07
522,44,96.983,41.624,234.18
523,44,96.924,41.816,233.97
524,44,99.194,45.215,232.54
525,45,90.642,35.35,240.66
526,45,91.021,35.451,240.7
527,45,90.502,35.119,241.12
528,45,90.766,35.286,241.04
529,44,97.894,39.39,235.81
530,44,98.022,38.994,236.08
531,44,98.124,39.384,236.35
532,44,98.013,39.385,236.09
533,42,91.505,40.726,241.54
534,42,91.686,40.504,241.5
535,42,91.747,40.575,241.12
536,42,91.56,40.762,241.28
537,42,91.321,40.967,241.51
538,42,91.435,40.98,241.12
539,42,91.244,41.231,241.06
540,42,91.045,41.435,241.09
541,41,88.68,45.984,240.68
542,41,88.807,46.265,240.68
543,41,88.954,46.542,240.68
544,41,88.669,45.989,241.07
545,44,98.348,40.817,236.55
546,44,98.498,40.974,236.74
547,44,98.401,41.107,236.49
548,43,99.094,42.829,235.85
549,43,99.178,42.763,236.13
550,44,99.327,45.413,232.74
551,44,99.275,45.526,232.45
552,45,99.57,45.633,233.37
553,45,99.654,45.838,233.58
554,43,99.324,44.209,234.32
555,43,99.477,44.553,234.27
556,43,99.557,44.832,234.16
557,43,99.532,44.444,234.56
558,43,99.762,45.008,234.71
559,43,99.679,45.04,234.36
560,45,99.631,45.555,233.68
561,43,99.746,45.412,234.32
562,43,99.818,45.386,234.69
563,45,101.94,34.28,239.71
564,45,101.92,34.706,240.09
565,45,102.03,34.566,239.82
566,45,101.82,34.414,239.98
567,43,99.288,43.064,235.92
568,43,99.385,42.953,236.31
569,43,100.23,43.36,238.28
570,43,100.02,44.656,236.01
571,43,99.93,44.049,236.26
572,43,100.04,44.331,236.37
573,43,99.995,44.38,236.1
574,43,100.08,44.22,236.75
575,43,100.07,43.829,237.17
576,43,100.04,43.929,236.88
577,43,100.15,44.195,237.13
578,43,100.19,44.572,237.1
579,43,100.28,44.946,237.89
580,43,100.34,44.922,238.31
581,43,100.23,45.325,237.88
582,42,100.16,45.667,237.88
583,43,100.27,45.328,238.3
584,42,100.18,45.674,238.28
585,42,100.07,45.958,237.88
586,43,100.05,41.134,239.24
587,43,100.22,41.386,239.47
588,43,100.09,41.423,239.2
589,43,100.24,42.943,238.66
590,43,100.33,43.33,238.66
591,43,100.39,43.206,238.95
592,43,100.54,42.201,239.95
593,43,100.58,42.579,239.91
594,42,100.92,41,241.57
595,42,100.96,41.38,241.53
596,43,100.64,42.167,240.27
597,43,100.7,42.573,240.28
598,42,100.78,42.425,240.56
599,42,100.87,42.59,240.79
600,42,100.94,42.173,241.15
601,42,100.85,42.186,240.87
602,42,100.45,44.507,238.82
603,42,100.42,44.84,238.82
604,42,100.39,44.738,238.56
605,42,100.23,45.736,239.09
606,42,100.12,46.013,239.09
607,42,100.36,45.455,239.47
608,42,100.25,45.776,239.5
609,40,88.85,43.368,244.64
610,41,90.9,40.486,244.3
611,41,90.938,40.563,243.92
612,41,90.76,40.737,244.07
613,41,91.114,40.322,243.95
614,40,88.746,43.582,244.45
615,40,88.689,43.841,244.55
616,40,88.75,43.627,244.76
617,40,89.157,45.954,244.04
618,40,89.234,46.291,243.51
619,40,89.094,46.004,243.72
620,40,89.281,46.196,243.88
621,41,90.159,40.952,246.31
622,41,90.211,40.952,245.92
623,41,90.03,41.232,245.89
624,41,89.999,41.22,246.28
625,40,89.838,41.453,247.92
626,40,89.733,41.778,247.9
627,40,89.843,41.461,248.32
628,40,89.751,41.79,248.3
629,40,89.889,43.249,249.82
630,40,89.978,43.46,250.02
631,40,89.929,43.143,250.1
632,40,90.025,43.359,250.31
633,39,90.63,44.944,249.88
634,39,90.839,45.1,250.03
635,39,90.68,44.827,250.26
636,39,90.9,45.038,250.31
637,40,90.452,43.435,252.3
638,40,90.365,43.11,252.83
639,40,90.339,43.139,252.51
640,40,90.475,43.357,252.68
641,40,90.92,43.811,253.47
642,40,91.061,44.071,253.09
643,40,91.27,44.273,253.14
644,40,91.111,44.029,253.44
645,37,97.987,46.371,252.05
646,37,98.185,46.483,251.86
647,37,98.025,46.327,252.34
648,37,98.292,46.45,252.27
649,42,101.01,40.96,241.89
650,42,101.08,41.369,241.89
651,41,100.68,45.826,243.08
652,41,100.49,46.049,243.08
653,41,100.86,45.59,243.13
654,41,101.68,44.46,243.96
655,41,101.91,44.158,244.27
656,41,101.78,44.501,244.31
657,41,101.65,44.78,244.35
658,41,100.71,45.861,243.47
659,41,100.33,46.321,243.87
660,41,100.55,46.115,243.88
661,41,100.77,45.932,244.16
662,41,100.36,46.339,244.26
663,41,101.11,45.889,245.45
664,41,100.89,46.085,245.49
665,41,101.17,45.922,245.75
666,44,95.339,48.128,229.88
667,44,94.934,48.108,230.29
668,44,95.168,48.289,230.11
669,44,95.099,47.963,230.04
670,46,97.967,48.341,229.77
671,46,98.221,48.151,229.91
672,46,98.316,48.292,230.17
673,44,96.967,49.081,230.32
674,46,97.784,48.579,229.95
675,44,97.108,49.153,230.6
676,44,96.798,49.208,230.53
677,44,97.297,49.343,231.53
678,44,97.336,49.399,231.91
679,44,97.878,49.155,231.87
680,46,98.616,48.657,231.53
681,46,98.865,48.454,231.57
682,46,98.825,48.431,231.28
683,46,98.377,48.824,231.57
684,44,97.577,49.241,231.56
685,44,97.544,49.199,231.29
686,44,97.61,49.287,231.92
687,43,93.021,49.27,233.52
688,43,93.366,49.458,233.47
689,43,93.644,49.543,233.35
690,43,93.251,49.533,233.74
691,44,97.393,49.433,232.3
692,43,99.02,48.206,234.26
693,43,99.015,48.158,234.64
694,44,97.946,49.181,234.01
695,44,98.165,49.04,233.86
696,43,98.627,48.627,234.27
697,43,98.832,48.422,234.26
698,44,97.736,49.316,233.86
699,44,97.959,49.19,233.7
700,42,94.977,50.029,235.12
701,42,95.318,50.047,235.1
702,43,92.04,49.16,237.49
703,43,92.317,49.316,237.49
704,43,92.603,49.463,237.47
705,43,92.05,49.152,237.89
706,43,93.408,49.923,236.29
707,43,93.049,49.752,236.69
708,43,93.388,49.867,236.7
709,43,93.787,49.951,236.7
710,43,99.129,47.887,235.5
711,42,98.749,48.338,235.53
712,43,98.946,48.12,235.49
713,42,99.108,47.858,235.9
714,42,98.725,48.307,235.91
715,42,98.923,48.087,235.9
716,42,99.079,47.84,236.29
717,42,98.696,48.279,236.31
718,42,98.894,48.063,236.3
719,42,98.665,48.254,236.69
720,42,98.305,48.716,235.91
721,42,98.52,48.517,235.91
722,42,98.246,48.656,236.69
723,42,98.459,48.46,236.69
724,42,99.17,47.57,237.6
725,42,99.021,47.812,237.06
726,42,98.636,48.231,237.07
727,42,99.015,47.772,237.44
728,42,98.811,48.004,237.41
729,42,94.963,50.038,235.49
730,42,95.305,50.052,235.48
731,42,93.757,49.53,239.49
732,42,94.052,49.563,239.58
733,41,93.963,49.611,239.27
734,42,94.242,49.632,239.36
735,41,98.916,47.71,239.1
736,41,98.681,47.893,239.5
737,41,98.895,47.695,239.5
738,40,98.319,47.958,241.52
739,40,98.577,47.784,241.48
740,42,96.501,48.953,241.06
741,42,96.474,48.878,241.42
742,42,96.793,48.853,241.03
743,42,96.747,48.811,241.3
744,44,99.325,46.952,231.59
745,44,99.215,46.976,231.3
746,44,99.33,47.304,231.6
747,44,99.428,46.932,231.91
748,42,99.203,47.591,237.02
749,42,99.187,47.581,237.29
750,17,105.86,62.572,234.71
751,17,105.89,62.656,235.08
752,17,106.02,62.388,235.13
753,17,105.99,62.356,234.88
754,14,98.915,72.157,230.26
755,14,98.906,72.199,230.65
756,41,89.926,47.226,243.03
757,41,90.172,47.422,243.07
758,41,89.969,47.167,243.3
759,42,93.789,48.736,243.16
760,42,94.175,48.752,243.17
761,42,93.843,48.814,242.86
762,42,94.186,48.827,242.87
763,42,95.882,48.788,242.41
764,42,95.471,48.764,242.79
765,42,95.773,48.734,242.71
766,42,95.281,48.843,242.57
767,40,98.288,47.931,241.9
768,40,98.02,48.093,241.89
769,40,98.261,47.899,242.29
770,40,98.554,47.76,241.87
771,40,98.791,47.596,241.83
772,39,94.975,48.159,245.47
773,39,95.372,48.225,245.08
774,39,95.354,48.138,245.44
775,39,94.958,48.077,245.78
776,38,93.031,47.358,247.06
777,39,93.396,47.466,247.08
778,38,93.072,47.25,247.4
779,38,93.422,47.347,247.43
780,41,97.897,47.587,245.62
781,41,98.173,47.509,245.48
782,41,98.511,47.375,245.5
783,41,98.194,47.443,245.9
784,42,97.475,47.165,248.4
785,42,97.304,47.233,248.18
786,42,97.338,47.106,248.7
787,42,97.162,47.182,248.45
788,42,98.58,46.946,249.48
789,42,98.97,46.96,249.49
790,42,98.596,46.901,249.86
791,42,98.979,46.935,249.87
792,38,99.769,47.028,251.09
793,38,100.17,47.103,251.11
794,38,99.765,47.033,251.5
795,38,100.17,47.134,251.54
796,16,107.24,71.677,246.31
797,16,107.06,71.898,246.31
798,16,107.44,71.477,246.71
799,16,107.27,71.701,246.71
800,18,107.47,71.513,247.5
801,18,107.3,71.736,247.5
802,18,107.48,71.528,247.89
803,18,107.32,71.747,247.89
804,19,108.29,70.321,248.29
805,19,108.44,70.066,248.29
806,19,108.28,70.321,248.69
807,19,108.43,70.061,248.69
808,2,53.417,77.827,244.29
809,2,53.562,77.989,244.5
810,2,53.607,78.26,244.47
811,3,53.149,75.241,245.74
812,3,53.315,75.427,245.93
813,3,52.71,73.23,247.35
814,3,52.803,73.536,247.15
815,3,52.933,73.798,247.1
816,3,52.877,73.413,247.53
817,3,53.044,73.744,247.47
818,3,53.075,74.083,247.06
819,3,53.145,74.015,247.34
820,3,53.248,75.544,245.64
821,2,53.881,76.966,245.79
822,2,54.033,77.048,246.04
823,2,53.861,77.382,245.45
824,2,53.953,77.249,245.73
825,2,54.226,77.811,245.88
826,2,54.321,77.669,246.14
827,2,54.491,77.841,246.33
828,2,54.393,77.974,246.07
829,2,54.578,77.017,247.13
830,2,54.44,77.041,246.85
831,2,54.654,76.891,247.4
832,2,54.666,77.355,247
833,2,55.487,78.047,247.76
834,2,55.686,78.211,247.92
835,2,55.589,78.339,247.65
836,2,55.854,78.551,247.85
837,1,54.945,80.992,244.71
838,1,55.364,82.1,243.89
839,1,55.695,82.269,243.95
840,1,55.495,81.993,244.14
841,1,55.767,82.089,244.27
842,1,54.957,80.597,245.1
843,1,54.827,80.722,244.83
844,1,55.072,80.869,244.98
845,1,57.228,81.483,246.81
846,1,57.487,81.633,246.95
847,1,57.361,81.714,246.66
848,1,57.298,81.881,246.33
849,2,55.848,78.147,248.27
850,2,57.228,79.532,249.14
851,2,57.399,79.798,249.1
852,2,57.302,79.401,249.51
853,2,57.478,79.677,249.45
854,3,59.699,81.023,252.63
855,3,59.96,81.159,252.61
856,3,59.677,81.101,252.94
857,3,59.924,81.198,252.87
858,4,57.774,82.654,254.41
859,4,58.124,82.676,254.27
860,4,57.844,83.034,254.43
861,4,58.157,83.054,254.31
862,8,55.42,94.088,252.31
863,8,55.609,94.294,252.32
864,8,55.8,94.496,252.32
865,8,55.449,94.04,252.7
866,2,69.264,84.857,241.08
867,2,69.368,84.92,240.72
868,8,85.655,83.248,229.87
869,8,85.646,83.233,230.27
870,8,85.114,83.504,229.87
871,8,85.373,83.383,229.87
872,8,85.104,83.491,230.27
873,8,85.364,83.369,230.27
874,8,85.096,83.48,231.08
875,8,85.355,83.358,231.08
876,8,84.818,83.607,231.08
877,8,85.097,83.48,231.48
878,8,84.818,83.607,231.48
879,8,85.1,83.484,231.88
880,8,85.359,83.363,231.88
881,7,81.569,84.77,233.48
882,7,81.274,84.86,233.47
883,7,81.267,84.847,233.87
884,8,84.211,83.871,232.28
885,8,84.511,83.749,232.28
886,8,83.956,83.976,232.68
887,8,84.216,83.876,232.68
888,8,84.517,83.755,232.68
889,8,83.96,83.979,233.07
890,8,84.221,83.881,233.07
891,8,83.36,84.197,235.07
892,8,83.7,84.093,235.07
893,8,85.187,83.583,234.88
894,8,85.439,83.497,235.04
895,8,85.22,83.592,235.2
896,5,75.75,84.589,239.48
897,5,75.746,84.486,239.83
898,5,76.153,84.576,239.48
899,5,76.151,84.478,239.83
900,7,78.579,84.687,238.76
901,7,78.976,84.672,238.73
902,7,78.56,84.621,239.09
903,7,78.956,84.609,239.09
904,8,76.956,84.13,241.49
905,8,77.365,84.145,241.48
906,8,82.773,84.356,236.68
907,8,83.046,84.287,236.68
908,8,80.254,84.74,237.58
909,8,80.358,84.764,237.29
910,8,80.046,84.795,237.37
911,8,80.135,84.823,237.07
912,8,82.778,84.353,237.08
913,8,83.052,84.288,237.08
914,8,83.352,84.2,235.48
915,8,83.7,84.098,235.48
916,8,84.381,83.956,237.01
917,8,84.08,84.036,237.06
918,8,84.399,83.967,237.28
919,8,84.147,84.04,237.46
920,8,82.124,84.459,238.68
921,8,81.736,84.493,239.08
922,8,82.128,84.454,239.08
923,8,82.134,84.453,239.47
924,0,64.53,87.771,240.71
925,0,64.123,87.814,241.12
926,0,64.428,87.668,241.06
927,0,64.246,87.884,240.83
928,1,65.764,87.085,240.34
929,1,65.604,87.282,240.18
930,1,65.525,87.197,240.48
931,3,62.789,88.395,240.92
932,3,62.948,88.264,241.12
933,3,63.089,88.361,240.85
934,2,68.593,86.264,238.33
935,2,68.947,86.118,238.28
936,3,71.617,85.982,236.53
937,3,71.801,85.851,236.73
938,3,71.941,85.935,236.45
939,2,68.541,86.115,238.68
940,2,69.004,85.867,238.74
941,2,68.313,85.525,240.34
942,2,68.592,85.405,240.31
943,2,68.201,85.458,240.72
944,2,68.546,85.298,240.7
945,2,69.019,85.063,240.75
946,2,69.12,85.11,240.46
947,5,76.249,85.936,234.37
948,5,76.604,85.882,234.33
949,5,76.202,85.868,234.73
950,5,76.571,85.816,234.69
951,6,79.709,85.312,233.07
952,5,77.816,85.517,235.16
953,5,77.936,85.546,234.86
954,5,77.621,85.586,234.95
955,5,76.944,85.752,234.68
956,5,77.327,85.69,234.64
957,5,76.962,85.671,235.09
958,5,77.325,85.627,235
959,6,80.354,85.138,233.07
960,6,80.055,85.221,233.06
961,6,80.331,85.125,233.49
962,7,80.939,84.959,233.47
963,2,66.203,84.662,245.92
964,2,65.903,84.72,246.02
965,3,65.583,84.789,246.11
966,2,66.017,84.826,245.74
967,2,65.715,84.886,245.84
968,3,65.096,84.758,246.46
969,3,64.788,84.828,246.53
970,3,65.291,84.861,246.17
971,3,64.937,84.933,246.27
972,3,66.983,83.869,246.79
973,3,66.707,83.934,246.84
974,3,66.907,84.047,246.55
975,2,67.751,84.605,244.71
976,3,68.096,84.469,244.67
977,4,69.595,84.007,243.76
978,4,69.324,84.103,243.9
979,4,69.531,83.952,244.06
980,3,67.721,84.489,245.07
981,2,68.189,84.258,245.15
982,3,69.006,83.531,245.95
983,3,68.612,83.513,246.33
984,3,68.95,83.403,246.27
985,3,68.73,83.604,246.06
986,3,67.342,83.315,247.42
987,3,67.629,83.269,247.34
988,3,67.784,83.389,247.08
989,3,68.571,83.084,247.12
990,3,68.944,82.983,247.08
991,3,68.987,83.109,246.82
992,3,68.717,83.179,246.87
993,3,67.31,83.648,246.95
994,3,66.65,82.411,252.8
995,3,66.956,82.446,252.72
996,3,66.517,82.48,253.08
997,3,66.929,82.559,253.08
998,3,68.197,82.302,248.78
999,3,68.583,82.26,248.78
1000,3,68.614,82.358,248.5
1001,3,68.172,82.193,249.13
1002,3,68.566,82.17,249.11
1003,3,68.977,82.328,248.47
1004,3,68.917,82.445,248.18
1005,3,68.534,82.113,250.3
1006,3,68.132,82.148,250.7
1007,3,68.518,82.184,250.68
1008,3,68.49,82.267,251.02
1009,4,69.705,82.242,250.22
1010,4,70.067,82.323,250.2
1011,4,69.675,82.32,250.53
1012,4,69.772,82.444,250.8
1013,5,72.161,83.268,251.13
1014,5,72.537,83.372,251.09
1015,5,72.89,83.469,251.04
1016,3,68.879,83.063,253.04
1017,3,69.075,83.181,253.24
1018,3,68.762,83.119,253.33
1019,5,70.177,83.753,254.3
1020,5,70.954,83.291,251.94
1021,5,71.331,83.383,251.91
1022,5,70.915,83.424,252.27
1023,5,70.884,83.528,252.54
1024,5,71.274,83.508,252.23
1025,5,71.454,83.635,252.43
1026,5,71.565,83.542,252.14
1027,5,71.758,83.668,252.35
1028,5,72.482,83.483,251.43
1029,5,72.772,83.528,251.32
1030,5,72.153,83.745,252.33
1031,5,72.529,83.804,252.28
1032,5,72.107,83.846,252.65
1033,5,72.491,83.904,252.62
1034,5,72.665,83.996,252.83
1035,5,70.498,83.857,254.27
1036,5,71.767,84.195,254.31
1037,5,72.347,83.963,252.89
1038,5,72.532,84.054,253.12
1039,5,72.135,84.25,254.29
1040,8,76.941,84.082,241.9
1041,8,77.357,84.102,241.88
1042,5,77.353,84.075,242.29
1043,8,78.184,84.163,242.29
1044,5,76.968,84.034,242.71
1045,5,77.372,84.067,242.7
1046,8,78.184,84.165,242.69
1047,8,78.575,84.228,242.29
1048,8,78.565,84.232,242.68
1049,6,78.453,84.335,244.23
1050,6,78.678,84.401,244.41
1051,6,78.726,84.376,244.09
1052,5,75.487,83.979,249.22
1053,5,75.77,84.046,249.08
1054,5,75.803,84.094,249.5
1055,5,76.155,84.153,249.1
1056,7,77.347,84.561,251.09
1057,7,77.703,84.644,251.07
1058,7,77.325,84.591,251.48
1059,7,77.665,84.667,251.45
1060,2,65.47,86.324,242.74
1061,2,65.532,86.387,242.48
1062,2,65.233,86.494,242.66
1063,2,65.349,86.251,243.12
1064,3,64.982,85.104,245.95
1065,3,65.337,85.001,245.89
1066,3,62.005,91.512,253.76
1067,2,66.988,94.926,250.65
1068,3,62.049,91.807,253.92
1069,3,61.871,91.626,254.07
1070,2,63.808,94.23,253.49
1071,2,63.944,94.333,253.77
1072,2,63.667,94.42,253.62
1073,2,64.125,94.143,253.58
1074,2,64.635,93.936,254.32
1075,2,64.402,94.065,254.28
1076,2,66.186,94.127,253.43
1077,2,65.945,94.025,253.67
1078,2,66.208,94.066,253.72
1079,2,67.349,95.008,250.69
1080,2,67.126,94.873,251.03
1081,2,67.408,94.943,251.06
1082,8,82.961,85.159,246.87
1083,8,82.949,85.207,247.17
1084,8,82.956,85.264,247.54
1085,9,84.53,84.928,245.91
1086,9,84.543,84.977,246.3
1087,9,84.916,84.879,245.9
1088,9,84.947,84.924,246.3
1089,8,83.38,85.15,246.89
1090,9,82.832,98.026,247.63
1091,9,82.57,97.886,247.94
1092,9,82.971,97.933,247.92
1093,9,83.34,97.969,247.99
1094,8,81.332,85.859,252.25
1095,8,81.292,85.909,252.63
1096,8,81.498,85.986,252.82
1097,8,81.881,85.996,252.41
1098,8,81.578,85.953,252.5
1099,8,81.792,86.026,252.71
1100,9,82.162,97.765,248.7
1101,9,82.526,97.717,248.67
1102,9,82.141,97.753,249.09
1103,9,82.492,97.679,249.05
1104,8,85.382,97.226,250.42
1105,8,85.741,97.223,250.42
1106,8,86.04,97.226,250.43
1107,8,85.329,97.29,250.14
1108,8,85.007,97.058,252.3
1109,8,85.386,96.976,252.3
1110,8,85.01,97.05,252.69
1111,8,85.371,96.952,252.69
1112,20,56.1,107.07,253.94
1113,20,56.491,107.12,253.84
1114,20,56.514,106.89,253.64
1115,20,56.242,106.9,253.68
1116,21,59.809,111.56,250.82
1117,21,59.537,111.56,250.87
1118,21,59.777,111.84,250.65
1119,21,59.37,111.81,250.73
1120,21,57.819,112.69,250.75
1121,21,58.047,112.5,250.77
1122,21,58.168,112.63,250.42
1123,21,57.871,112.72,250.46
1124,22,59.718,113.59,251.52
1125,22,60.027,113.65,251.4
1126,22,60.164,113.49,251.18
1127,22,60.21,113.87,251.56
1128,21,68.321,122.79,230.67
1129,21,68.58,122.69,230.68
1130,21,68.562,122.67,231.09
1131,21,68.864,122.56,230.67
1132,21,72.51,120.97,230.67
1133,21,72.496,121,231.09
1134,21,72.826,121.11,230.68
1135,21,72.811,121.13,231.09
1136,21,70.738,121.63,233.29
1137,21,70.978,121.52,233.44
1138,21,70.762,121.64,233.61
1139,21,70.281,122,234.66
1140,21,70.298,122.03,235.02
1141,21,70.548,121.9,235.06
1142,21,71.451,121.59,237.02
1143,21,71.251,121.79,237.05
1144,21,71.48,121.64,237.29
1145,21,71.32,121.87,237.43
1146,21,72.112,121.11,238.29
1147,21,71.971,121.47,238.33
1148,18,72.853,120.17,240.69
1149,18,72.846,120.17,241.08
1150,21,72.173,121.15,238.66
1151,21,72.09,121.52,238.68
1152,18,72.515,121.91,239.99
1153,18,70.973,123.09,239.89
1154,18,71.297,122.95,239.53
1155,18,71.32,123.02,239.92
1156,18,71.613,122.94,239.95
1157,18,72.653,120.44,240.69
1158,18,72.61,121.95,240.25
1159,18,72.65,120.44,241.08
1160,19,82.284,116.74,237.14
1161,19,82.607,116.65,237.14
1162,19,82.192,116.69,237.51
1163,19,82.585,116.6,237.5
1164,19,83.539,116.87,238.43
1165,19,83.236,116.78,238.61
1166,19,83.483,116.93,238.72
1167,19,83.176,116.83,238.87
1168,19,76.603,122.51,239.08
1169,19,76.693,122.45,239.39
1170,19,76.948,122.62,239.12
1171,19,77.324,122.67,239.12
1172,19,78.932,122.48,239.46
1173,19,79.222,122.42,239.61
1174,19,78.513,122.57,239.48
1175,19,78.504,122.57,239.88
1176,18,83.307,117.55,240.61
1177,18,83.489,117.68,240.81
1178,18,83.192,117.61,240.88
1179,18,83.355,117.73,241.1
1180,6,79.752,98.481,249.9
1181,6,79.775,98.497,250.29
1182,6,80.119,98.498,249.93
1183,6,80.129,98.536,250.31
1184,6,82.087,100.29,250.33
1185,6,82.122,100.68,250.34
1186,6,82.139,101.06,250.33
1187,6,82.056,100.65,250.73
1188,3,84.932,99.833,249.09
1189,3,85.117,100.03,249.26
1190,3,85.216,99.914,248.95
1191,3,85.383,100.18,249.11
1192,5,83.794,99.876,251.06
1193,5,83.962,100.07,251.21
1194,5,83.999,100.02,250.9
1195,6,85.3,102.19,250.19
1196,6,85.207,102.16,250.47
1197,6,85.178,102.42,250.44
1198,6,84.308,104.31,251.21
1199,5,83.278,98.961,251.94
1200,5,83.381,99.334,251.91
1201,5,83.328,98.963,252.3
1202,5,83.391,99.352,252.29
1203,7,84.686,101.85,251.54
1204,7,84.529,101.85,251.78
1205,7,84.683,102.22,251.53
1206,7,84.527,102.24,251.77
1207,7,84.324,102.63,251.99
1208,7,83.935,102.68,252.43
1209,7,84.139,102.64,252.22
1210,7,84.281,103.02,251.96
1211,6,84.3,103.83,251.6
1212,6,84.231,104.17,251.48
1213,6,84.4,104.01,251.29
1214,6,81.411,105.76,251.13
1215,6,81.77,105.91,251
1216,6,81.809,105.68,250.81
1217,6,81.558,105.61,250.92
1218,6,82.55,105.95,250.98
1219,6,82.541,105.79,250.77
1220,6,82.921,105.86,251.14
1221,6,82.891,105.73,250.84
1222,6,83.167,105.54,252.43
1223,7,82.931,106.61,252.75
1224,7,82.891,107,252.76
1225,6,82.302,104.62,253.62
1226,6,81.998,104.46,253.69
1227,6,82.075,104.69,253.81
1228,7,82.944,106.62,253.12
1229,7,82.965,107,253.14
1230,6,83.298,105.34,252.24
1231,6,83.216,105.62,252.12
1232,17,72.919,119.5,245.93
1233,17,73.205,119.63,245.94
1234,17,72.939,119.47,246.3
1235,17,73.208,119.64,246.31
1236,21,62.465,111.87,252.36
1237,21,62.655,112.17,252.29
1238,21,62.638,111.82,252.71
1239,21,62.758,112.05,252.56
1240,21,62.748,112.45,252.14
1241,21,63.001,112.21,252.71
1242,22,61.753,114.75,251.72
1243,22,62.14,114.72,251.77
1244,22,61.743,115.07,251.91
1245,22,62.154,114.97,251.99
1246,17,63.351,115,253.15
1247,17,63.733,114.99,253.17
1248,17,63.358,114.98,253.49
1249,17,63.743,114.98,253.51
1250,16,68.762,117.21,251.42
1251,16,68.928,117.41,251.59
1252,16,68.71,117.27,251.75
1253,17,78.892,119.47,244.28
1254,17,79.239,119.04,244.28
1255,17,79.44,119.09,244.01
1256,17,79.166,119.44,244.13
1257,17,76.688,122.11,244.4
1258,17,76.881,122.24,244.23
1259,17,76.816,122.34,244.51
1260,16,76.881,119.33,245.5
1261,16,77.172,119.19,245.69
1262,16,76.954,119.43,245.85
1263,16,77.185,119.23,246.02
1264,16,77.186,119.88,246.82
1265,16,77.336,120.27,246.7
1266,16,77.25,119.91,247.15
1267,16,77.377,120.29,247.13
1268,16,77.504,119.21,247.52
1269,16,77.758,119,247.52
1270,16,77.516,119.24,247.92
1271,16,77.758,119.02,247.92
1272,16,77.344,119.55,247.92
1273,16,77.285,119.93,247.54
1274,16,77.285,119.94,247.93
1275,17,75.1,120.55,245.32
1276,17,74.815,120.44,245.4
1277,17,74.937,120.73,245.53
1278,17,81.556,117.99,243.16
1279,17,81.855,117.91,243.13
1280,17,81.464,117.96,243.54
1281,17,81.821,117.88,243.51
1282,17,83.505,118.04,243.07
1283,18,83.821,118.17,243.1
1284,17,84.117,118.3,243.09
1285,17,83.516,118.03,243.37
1286,18,83.905,118.05,244.55
1287,18,84.18,118.13,244.69
1288,18,84.518,118.27,244.71
1289,18,84.793,118.38,244.75
1290,17,84.759,118.42,244.47
1291,18,85.057,118.49,244.66
1292,18,85.703,118.69,244.73
1293,17,85.988,118.77,244.76
1294,16,80.264,117.95,245.58
1295,16,80.596,117.84,245.53
1296,16,80.934,117.74,245.5
1297,16,80.945,117.67,245.92
1298,17,83.747,117.83,245.5
1299,18,83.988,117.98,245.15
1300,17,84.085,117.94,245.53
1301,17,83.77,117.77,245.89
1302,17,84.101,117.88,245.92
1303,18,85.379,118.52,245.09
1304,17,85.693,118.34,246.37
1305,18,85.754,118.63,245.1
1306,17,85.392,118.18,246.69
1307,17,85.734,118.27,246.74
1308,17,86.082,118.36,246.78
1309,17,84.535,116.87,253.89
1310,16,74.608,119.68,250.54
1311,16,74.965,119.72,250.59
1312,16,74.952,119.91,250.37
1313,16,74.955,119.52,250.8
1314,15,76.554,119.92,249.92
1315,16,75.755,119.39,251.08
1316,16,77.346,119.56,248.31
1317,16,76.861,120.26,249.08
1318,16,77.008,120.35,248.76
1319,15,76.902,119.88,249.52
1320,15,79.126,118.33,249.9
1321,15,78.845,118.45,249.89
1322,15,79.107,118.33,250.31
1323,15,79.372,118.22,250.3
1324,15,77.458,119.15,250.32
1325,15,77.734,118.97,250.33
1326,15,77.215,119.33,250.27
1327,15,77.034,119.57,249.94
1328,15,77.072,119.64,249.68
1329,15,77.355,119.12,250.74
1330,16,76.506,120.61,249.06
1331,16,76.878,120.64,248.68
1332,16,75.492,119.21,251.32
1333,16,75.77,119.08,251.6
1334,16,75.79,119.23,251.35
1335,15,76.56,118.76,252.47
1336,14,79,118.27,251.52
1337,14,78.968,118.24,251.91
1338,14,79.315,118.16,251.5
1339,14,79.332,118.11,251.91
1340,15,76.892,118.85,252.18
1341,15,77.181,118.81,252.13
1342,15,76.947,118.66,252.74
1343,14,77.323,118.61,252.7
1344,14,77.708,118.52,252.68
1345,14,77.919,118.41,252.88
1346,14,77.617,118.47,252.97
1347,13,79.407,117.5,254.36
1348,13,79.518,117.56,254.06
1349,13,79.215,117.64,254.17
1350,13,79.316,117.69,253.87
1351,15,80.774,117.61,249.5
1352,15,81.053,117.51,249.5
1353,15,80.77,117.61,249.9
1354,15,81.046,117.51,249.9
1355,14,82.057,117.23,251.08
1356,15,82.377,117.21,250.74
1357,15,82.659,117.19,250.75
1358,15,82.973,117.18,250.76
1359,14,82.361,117.19,251.14
1360,15,82.649,117.17,251.14
1361,16,83.772,117.36,249.1
1362,16,83.777,117.32,249.51
1363,16,84.148,117.43,249.11
1364,16,84.167,117.4,249.51
1365,17,85.732,117.89,248.74
1366,16,86.081,117.96,248.79
1367,16,85.976,117.99,248.49
1368,17,85.77,117.83,249.12
1369,14,82.036,117.23,251.39
1370,14,82.274,117.18,251.55
1371,16,84.064,117.18,251.61
1372,16,84.279,117.22,251.4
1373,16,84.355,117.19,251.71
1374,14,83.749,117.08,252.3
1375,14,83.369,117.03,252.68
1376,14,83.762,117.03,252.68
1377,14,83.369,116.98,253.07
1378,17,84.558,116.95,253.48
1379,17,84.958,116.98,253.47
1380,17,84.96,116.9,253.84
1381,19,73.857,123.75,237.79
1382,13,97.953,73.576,226.33
1383,13,98.106,73.349,226.29
1384,13,97.96,73.589,226.06
1385,14,98.704,72.339,227.47
1386,14,98.704,72.343,227.87
1387,12,93.78,78.171,226.73
1388,12,93.585,78.371,226.55
1389,12,93.559,78.337,226.87
1390,10,89.12,81.517,227.94
1391,10,89.149,81.551,227.67
1392,10,88.869,81.681,227.89
1393,10,89.008,81.466,228.72
1394,10,89.29,81.304,228.7
1395,11,90.73,80.744,226.74
1396,11,90.971,80.592,226.69
1397,11,91.003,80.682,226.31
1398,11,90.767,80.797,226.47
1399,11,90.683,80.683,227.1
1400,11,90.95,80.505,227.1
1401,10,90.44,80.868,227.05
1402,10,90.178,81.044,227.12
1403,10,90.394,80.828,227.35
1404,10,89.548,81.152,228.74
1405,12,93.092,79.12,225.52
1406,12,93.306,78.93,225.48
1407,12,93.387,79.014,225.11
1408,12,93.148,79.177,225.26
1409,14,98.571,72.594,229.08
1410,14,98.402,72.855,229.08
1411,14,98.581,72.602,229.47
1412,14,98.412,72.861,229.48
1413,14,98.755,72.39,230.21
1414,14,98.435,72.881,230.27
1415,14,98.118,73.355,230.25
1416,14,98.27,73.13,230.26
1417,13,97.095,74.748,230.25
1418,14,97.271,74.526,230.27
1419,13,96.923,74.958,230.25
1420,13,96.736,75.173,230.2
1421,14,97.624,74.058,230.27
1422,14,97.444,74.299,230.27
1423,14,98.761,72.401,230.48
1424,14,98.113,73.399,230.64
1425,13,97.122,74.767,230.61
1426,14,97.301,74.545,230.66
1427,12,95.358,76.586,229.42
1428,12,95.153,76.777,229.26
1429,12,94.962,76.983,229.42
1430,12,95.168,76.792,229.59
1431,12,94.16,77.836,230.24
1432,12,93.78,78.15,230.24
1433,12,93.984,78.002,230.4
1434,12,93.773,78.205,230.65
1435,12,94.672,77.492,231.07
1436,12,94.877,77.3,231.08
1437,12,95.078,77.102,231.07
1438,12,94.708,77.524,231.42
1439,13,94.567,77.737,231.85
1440,13,94.776,77.583,232.01
1441,13,96.341,75.575,229.8
1442,13,96.142,75.801,229.83
1443,13,96.365,75.582,230.07
1444,13,96.281,75.922,231.46
1445,13,96.467,75.71,231.48
1446,13,96.098,76.128,231.47
1447,13,94.803,77.629,232.32
1448,13,94.353,77.972,232.09
1449,10,89.003,81.428,229.1
1450,10,89.269,81.275,229.08
1451,11,91.506,79.908,229.08
1452,11,91.268,80.065,229.08
1453,11,91.502,79.898,229.48
1454,11,91.261,80.055,229.48
1455,10,90.761,80.349,230.27
1456,10,90.523,80.491,230.27
1457,10,90.765,80.353,230.65
1458,10,91.004,80.213,230.66
1459,9,86.709,82.692,229.88
1460,9,86.702,82.678,230.28
1461,9,86.951,82.545,230.27
1462,9,86.435,82.819,230.28
1463,9,86.697,82.67,230.68
1464,9,86.946,82.537,230.68
1465,9,86.43,82.811,230.68
1466,9,86.694,82.667,231.08
1467,9,87.504,82.243,231.47
1468,9,87.739,82.115,231.46
1469,9,87.513,82.252,231.88
1470,9,87.777,82.108,231.85
1471,9,87.975,81.98,231.41
1472,9,87.985,81.984,231.68
1473,10,89.351,81.299,233.05
1474,10,89.352,81.352,233.48
1475,11,91.93,79.92,233.42
1476,11,91.676,80.075,233.47
1477,10,90.619,80.657,233.44
1478,10,90.415,80.785,233.6
1479,10,90.903,80.507,233.46
1480,10,89.559,81.159,232.89
1481,10,89.8,81.043,233.04
1482,11,91.41,80.225,233.46
1483,11,91.951,79.951,233.7
1484,12,92.469,79.67,233.88
1485,10,90.708,80.666,233.85
1486,10,91.505,80.297,234.26
1487,11,91.752,80.162,234.28
1488,10,91.541,80.341,234.62
1489,11,91.794,80.208,234.67
1490,9,88.416,82.011,234.4
1491,9,88.175,82.178,234.67
1492,9,88.447,82.04,234.71
1493,9,88.207,82.219,235.06
1494,12,92.722,79.502,233.83
1495,11,92.748,79.537,234.1
1496,11,93.303,79.301,234.68
1497,11,93.569,79.177,234.9
1498,11,93.378,79.332,235.06
1499,11,93.614,79.213,235.22
1500,12,95.677,78.088,237.09
1501,12,95.72,78.129,237.47
1502,12,95.896,77.903,237.07
1503,12,95.94,77.94,237.43
1504,12,96.907,77.715,239.88
1505,12,96.41,78.028,239.61
1506,12,96.453,78.072,239.91
1507,12,96.682,77.884,239.87
1508,10,89.379,81.733,235.85
1509,10,90.582,81.333,237.06
1510,10,90.833,81.23,237.21
1511,10,90.348,81.541,237.43
1512,10,90.604,81.412,237.46
1513,10,89.104,81.882,235.86
1514,10,89.139,81.932,236.22
1515,10,89.395,81.804,236.26
1516,10,88.714,82.31,237.02
1517,10,88.459,82.451,237.1
1518,10,88.75,82.348,237.3
1519,11,93.234,80.437,239.93
1520,11,95.368,79.017,240.27
1521,11,94.954,79.312,240.26
1522,11,95.189,79.19,240.43
1523,11,95.464,79.06,240.68
1524,11,95.235,79.24,240.73
1525,11,95.526,79.118,241.04
1526,11,95.298,79.3,241.09
1527,10,93.003,80.678,240.25
1528,10,93.283,80.502,240.29
1529,10,93.109,80.715,240.63
1530,12,95.939,79.151,242.12
1531,12,96.17,79.029,242.27
1532,12,95.997,79.21,242.43
1533,12,96.729,79.118,243.73
1534,12,96.969,79.003,243.88
1535,12,96.544,79.294,243.89
1536,12,96.79,79.176,244.04
1537,11,87.689,84.89,252.69
1538,11,90.102,84.048,253.1
1539,11,90.189,84.075,253.48
1540,11,89.768,84.148,253.1
1541,11,89.806,84.188,253.49
1542,16,103.89,75.083,245.88
1543,16,103.66,75.257,245.92
1544,16,103.95,75.128,246.24
1545,16,103.72,75.303,246.29
1546,14,100.37,77.181,244.9
1547,14,100.18,77.376,245.06
1548,14,100.44,77.257,245.21
1549,15,103.37,75.855,247.87
1550,15,103.19,76.035,248.02
1551,15,103.64,75.644,247.92
1552,19,106.61,72.58,247.06
1553,19,106.41,72.824,247.13
1554,19,106.61,72.637,247.5
1555,19,106.43,72.853,247.51
1556,17,104.37,75.161,249.89
1557,17,104.17,75.353,249.89
1558,17,104.37,75.165,250.28
1559,17,104.58,74.971,250.29
1560,15,103.45,75.857,248.3
1561,14,102.71,76.749,249.44
1562,14,102.73,76.78,249.7
1563,14,102.92,76.599,249.86
1564,18,106.64,72.682,251.09
1565,18,106.64,72.673,251.49
1566,18,106.45,72.898,251.49
1567,11,87.097,85.104,252.28
1568,11,87.362,84.983,252.29
1569,11,87.133,85.142,252.64
1570,10,86.713,85.517,253.9
1571,10,86.438,85.649,253.92
1572,10,86.737,85.546,254.28
1573,10,86.463,85.675,254.3
1574,26,100.92,106.99,253.86
1575,26,100.79,106.85,254.12
1576,26,100.54,107,254.28
1577,26,100.68,107.15,254.01
1578,27,99.276,109.4,253.8
1579,27,99.171,109.2,254.09
1580,27,99.066,109.45,254.01
1581,26,97.014,113.12,251.19
1582,26,97.378,113.04,251.16
1583,26,96.971,113,251.52
1584,26,97.349,112.92,251.5
1585,26,97.097,111.92,253.93
1586,26,96.969,111.79,254.3
1587,26,97.225,111.67,254.17
1588,26,96.802,112.01,254.14
1589,17,86.535,117.92,249.56
1590,17,86.914,117.98,249.59
1591,17,86.772,118.01,249.3
1592,17,86.571,117.87,249.92
1593,40,69.46,33.902,257.48
1594,40,69.771,33.779,257.52
1595,40,71.709,32.832,256.36
1596,40,71.758,32.914,256.71
1597,40,72.141,32.899,256.72
1598,40,72.139,32.829,256.43
1599,40,69.511,33.956,257.77
1600,40,69.795,33.871,257.89
1601,40,67.716,35.011,258.32
1602,40,67.832,35.072,258.67
1603,40,67.59,35.227,258.75
1604,40,67.526,35.164,258.49
1605,40,69.46,36.285,261.75
1606,40,69.751,36.225,261.81
1607,40,69.692,36.035,261.61
1608,38,73.381,35.313,261.85
1609,39,70.676,36.704,262.57
1610,39,70.521,36.543,262.37
1611,39,70.975,36.646,262.61
1612,39,70.905,36.444,262.41
1613,39,71.344,37.012,263.1
1614,39,71.743,36.9,263.11
1615,39,71.503,37.165,263.32
1616,39,71.809,37.107,263.36
1617,40,72.216,36.665,263
1618,40,72.596,36.622,263.04
1619,40,72.586,36.42,262.83
1620,40,72.977,36.59,263.06
1621,39,72.179,37.052,263.42
1622,39,72.561,37.025,263.5
1623,39,72.707,37.167,263.73
1624,39,70.944,37.82,263.9
1625,39,72.156,37.432,263.91
1626,39,71.1,37.938,264.15
1627,39,70.567,38.245,264.3
1628,39,70.519,38.077,264.03
1629,38,72.985,37.762,264.72
1630,38,72.978,37.617,264.48
1631,38,73.378,37.716,264.74
1632,38,73.369,37.577,264.5
1633,41,74.604,35.272,255.92
1634,41,74.789,35.496,255.87
1635,41,74.562,35.368,256.33
1636,41,74.732,35.548,256.17
1637,38,76,37.523,257.47
1638,38,76.192,37.718,257.51
1639,40,73.644,34.165,257.92
1640,40,73.776,34.412,257.93
1641,40,73.65,34.124,258.31
1642,40,73.8,34.388,258.34
1643,38,75.799,37.383,257.95
1644,38,75.983,37.555,257.79
1645,38,73.714,35.398,261.82
1646,38,73.768,35.223,261.61
1647,38,73.529,35.147,261.66
1648,38,74.782,36.629,261.8
1649,38,74.825,36.548,261.5
1650,38,74.669,36.356,261.68
1651,38,74.89,36.879,261.93
1652,38,73.754,38.455,266.05
1653,38,74.142,38.582,266.3
1654,38,74.139,38.44,266.05
1655,37,77.114,39.604,265.99
1656,37,77.346,39.758,265.94
1657,37,77.104,39.638,266.35
1658,37,77.353,39.81,266.36
1659,35,85.964,39.475,264.24
1660,35,86.05,39.368,263.96
1661,35,86.054,39.744,264.37
1662,35,85.882,39.559,264.54
1663,35,84.947,39.355,265.96
1664,35,85.249,39.471,265.96
1665,35,84.937,39.444,266.31
1666,35,85.22,39.547,266.3
1667,36,79.968,41.132,264.51
1668,36,80.146,41.34,264.65
1669,36,80.544,41.38,264.62
1670,36,80.297,41.169,264.45
1671,35,81.861,41.447,265.44
1672,35,81.734,41.312,265.21
1673,35,81.968,41.175,265.32
1674,35,80.589,43.005,266.75
1675,35,80.578,42.878,266.47
1676,35,80.969,42.965,266.78
1677,35,80.93,42.849,266.5
1678,30,80.551,41.778,272.7
1679,30,80.775,41.944,272.85
1680,30,80.52,41.763,273.11
1681,30,80.793,41.942,273.14
1682,35,82.6,42.906,273.55
1683,35,82.859,43.008,273.69
1684,35,82.71,43.14,273.43
1685,34,85.41,45.44,274.73
1686,34,85.687,45.52,274.61
1687,34,85.872,45.67,274.8
1688,34,85.599,45.603,274.9
1689,35,84.425,45.108,275.79
1690,35,84.492,45.434,276.3
1691,35,84.583,45.347,275.95
1692,35,84.351,45.17,276.09
1693,29,82.572,45.32,279.12
1694,29,82.135,45.439,279.41
1695,29,82.201,45.22,279.21
1696,29,82.156,45.663,279.58
1697,29,83.349,45.307,278.37
1698,29,83.599,45.474,278.22
1699,29,83.663,45.356,277.92
1700,29,83.444,45.196,278.08
1701,13,54.98,48.985,255.1
1702,13,54.856,49.302,255.14
1703,13,55.054,48.989,255.51
1704,13,54.919,49.322,255.53
1705,13,55.552,48.324,256.56
1706,13,55.683,48.115,256.73
1707,13,55.877,47.86,257.08
1708,13,55.752,48.148,257.12
1709,11,54.519,51.324,257.53
1710,11,54.421,51.606,257.56
1711,11,54.379,51.564,257.29
1712,12,55.818,50.172,260.7
1713,12,55.685,50.525,260.74
1714,11,52.718,56.257,255.08
1715,11,52.614,56.58,254.7
1716,11,52.655,56.619,255.1
1717,11,52.588,57.005,255.1
1718,9,53.09,58.592,259.82
1719,9,53.07,58.96,259.9
1720,9,53.165,58.5,260.11
1721,9,53.142,58.775,260.14
1722,12,55.873,50.276,260.99
1723,12,55.801,50.556,261.12
1724,8,52.392,60.167,256.42
1725,8,52.436,60.18,256.75
1726,8,52.382,60.572,256.43
1727,8,52.345,60.575,256.15
1728,8,52.379,61.787,256.44
1729,8,52.415,61.786,256.77
1730,8,52.377,62.198,256.44
1731,8,52.409,62.191,256.76
1732,8,52.406,62.594,256.75
1733,8,52.448,62.188,257.12
1734,8,52.442,62.587,257.11
1735,8,52.319,63.689,254.63
1736,8,52.349,64.006,254.56
1737,7,52.321,62.967,255.5
1738,7,52.337,62.853,255.8
1739,7,52.362,63.041,256.02
1740,7,52.351,63.178,255.72
1741,9,52.664,60.17,258.25
1742,9,52.65,60.572,258.26
1743,9,52.724,60.201,258.61
1744,9,52.713,60.576,258.63
1745,8,52.587,62.583,258.27
1746,8,52.648,62.576,258.67
1747,8,52.708,62.565,259.04
1748,8,52.636,62.972,258.68
1749,7,53.267,63.376,261.97
1750,7,53.201,63.375,261.7
1751,7,53.347,63.386,262.3
1752,7,53.25,63.785,261.99
1753,12,58.214,62.995,270.6
1754,12,57.986,62.986,270.43
1755,12,57.967,63.385,270.45
1756,10,57.071,68.181,269.77
1757,10,57.518,68.064,270.11
1758,10,57.328,68.219,269.96
1759,10,57.085,68.574,269.75
1760,16,70.716,57.926,284.94
1761,16,70.968,57.778,285.08
1762,16,71.13,57.937,285.31
1763,16,71.372,57.791,285.43
1764,23,76.939,50.51,283.11
1765,23,76.695,50.781,283.34
1766,23,76.999,50.719,283.37
1767,23,77.367,50.66,283.42
1768,22,78.667,51.14,284.12
1769,23,78.987,51.128,284.14
1770,23,78.959,50.911,283.94
1771,23,78.95,51.339,284.34
1772,22,78.947,52.331,285.39
1773,22,78.951,52.136,285.19
1774,22,79.354,52.331,285.39
1775,22,79.358,52.134,285.19
1776,28,84.093,47.785,280.2
1777,28,84.357,47.927,280.1
1778,28,84.156,48.12,280.37
1779,28,84.441,48.187,280.2
1780,21,75.867,54.271,286.2
1781,21,75.397,54.657,286.2
1782,21,75.315,54.416,286.05
1783,21,75.737,54.545,286.28
1784,26,85.338,53.78,285.83
1785,26,85.621,53.885,285.75
1786,26,85.521,53.6,285.67
1787,26,85.376,54.129,285.95
1788,21,79.766,53.84,286.63
1789,21,78.688,54.369,286.95
1790,21,78.535,54.177,286.78
1791,21,78.994,54.346,286.97
1792,21,78.962,54.109,286.78
1793,20,75.488,59.512,289.34
1794,20,75.31,59.325,289.18
1795,21,80.164,53.83,286.65
1796,21,80.153,53.606,286.47
1797,21,80.56,53.827,286.66
1798,25,82.902,55.089,287.43
1799,25,82.889,55.511,287.82
1800,25,82.929,55.306,287.61
1801,22,80.562,55.925,288.57
1802,22,80.95,55.924,288.58
1803,22,80.165,56.183,288.73
1804,22,80.562,56.175,288.75
1805,25,83.331,55.407,287.51
1806,25,83.633,55.505,287.43
1807,25,83.503,55.245,287.28
1808,25,82.547,57.441,289.44
1809,25,82.906,57.498,289.39
1810,25,82.952,57.271,289.21
1811,25,83.583,56.749,288.54
1812,25,83.741,56.586,288.31
1813,25,84.039,56.694,288.23
1814,25,83.728,56.992,288.66
1815,25,84.024,57.11,288.59
1816,25,83.891,56.843,288.45
1817,25,83.365,57.362,289.12
1818,25,83.719,57.452,289.03
1819,25,83.782,57.246,288.84
1820,25,83.515,57.184,288.92
1821,25,83.2,57.543,289.33
1822,15,69.838,61.38,285.46
1823,15,69.658,61.372,285.24
1824,15,69.623,61.727,285.29
1825,17,69.356,62.565,285.14
1826,17,69.197,62.52,284.91
1827,17,69.557,62.313,285.35
1828,17,69.525,62.618,285.39
1829,17,69.776,64.174,286.35
1830,15,69.1,65.02,285.43
1831,15,69.047,65.386,285.46
1832,15,69.018,65.767,285.55
1833,15,69.245,64.969,285.68
1834,17,69.556,64.725,286.18
1835,17,69.698,64.558,286.39
1836,17,69.603,64.409,286.12
1837,17,70.359,63.913,287.41
1838,17,70.507,63.725,287.61
1839,17,70.445,64.013,287.72
1840,18,70.57,64.571,288.78
1841,18,70.472,64.914,288.83
1842,18,70.425,64.808,288.53
1843,18,70.66,64.588,289.17
1844,18,70.712,64.677,289.52
1845,18,70.826,64.417,289.62
1846,18,70.781,64.369,289.35
1847,18,70.987,64.209,289.95
1848,18,71.069,64.225,290.35
1849,18,70.875,64.53,290
1850,18,70.947,64.573,290.37
1851,18,71.312,64.952,291.99
1852,18,71.223,64.915,291.71
1853,18,71.242,65.332,292.02
1854,18,71.179,65.19,291.75
1855,15,69.368,66.997,286.77
1856,15,69.256,66.988,286.49
1857,15,69.331,67.391,286.79
1858,15,69.229,67.39,286.52
1859,18,69.827,66.601,287.92
1860,18,69.769,66.988,287.97
1861,18,69.714,67.373,288.01
1862,16,69.294,68.98,286.85
1863,16,69.38,68.591,287.17
1864,16,69.352,69.006,287.18
1865,18,69.666,67.757,288.05
1866,16,69.453,68.588,287.52
1867,18,69.962,66.32,288.21
1868,18,69.919,66.615,288.25
1869,18,69.801,67.395,288.34
1870,18,69.899,67.4,288.72
1871,18,69.742,67.788,288.37
1872,15,69.261,69.376,286.87
1873,15,69.216,69.333,286.58
1874,15,69.165,69.929,286.64
1875,15,69.218,69.765,286.87
1876,15,69.23,70.19,287.24
1877,15,69.213,70.587,287.26
1878,15,69.171,70.593,286.98
1879,15,69.276,70.208,287.57
1880,15,69.263,70.59,287.58
1881,15,69.216,70.986,287.26
1882,15,69.169,70.989,286.98
1883,18,69.439,69.81,288.31
1884,18,69.403,70.209,288.3
1885,18,69.479,70.206,288.67
1886,18,69.489,70.621,288.71
1887,18,69.558,70.197,289
1888,18,69.552,70.48,289
1889,18,69.632,70.185,289.28
1890,20,75.172,59.594,289.26
1891,20,74.965,61.458,290.74
1892,20,75.083,61.545,291.01
1893,20,74.903,61.705,291.2
1894,20,74.784,61.63,290.92
1895,19,73.696,62.161,291.2
1896,19,73.981,62.064,291.22
1897,19,74.3,62.002,291.41
1898,19,73.736,62.219,291.57
1899,23,83.991,61.533,291.74
1900,23,84.108,61.81,291.83
1901,23,84.277,61.645,291.62
1902,24,85.662,65.019,292.63
1903,24,85.87,64.958,292.43
1904,24,85.76,65.37,292.71
1905,24,86.015,65.517,292.57
1906,20,73.37,63.033,293.97
1907,20,73.329,62.893,293.69
1908,18,71.555,65.513,293
1909,18,71.674,65.342,293.21
1910,18,71.789,65.392,293.53
1911,18,71.727,65.763,293.59
1912,19,72.258,65.005,294.31
1913,18,72.157,65.382,294.36
1914,18,72.045,65.336,294.09
1915,19,72.075,65.76,294.41
1916,20,72.704,65.541,295.39
1917,20,72.89,65.393,295.55
1918,20,73.081,65.459,295.79
1919,20,73.016,65.828,295.86
1920,18,72.154,66.179,294.76
1921,18,72.033,66.162,294.5
1922,18,72.118,66.566,294.79
1923,18,71.993,66.525,294.53
1924,18,72.974,66.208,295.9
1925,18,72.783,66.203,295.7
1926,18,72.952,66.588,295.92
1927,18,72.761,66.587,295.73
1928,18,72.999,68.15,295.86
1929,18,72.79,68.158,295.68
1930,18,72.611,68.548,295.45
1931,18,73.037,68.541,295.82
1932,19,72.936,69.386,295.51
1933,19,73.121,69.221,295.71
1934,19,73.182,69.527,295.65
1935,17,73.374,71.821,294.74
1936,17,73.447,72.206,294.67
1937,19,73.41,67.757,296.25
1938,19,73.452,68.146,296.22
1939,19,73.218,68.151,296.04
1940,19,74.543,62.647,293.92
1941,19,74.937,62.599,293.96
1942,19,74.569,62.76,294.23
1943,19,74.941,62.728,294.31
1944,21,75.727,62.514,294.02
1945,21,75.752,62.623,294.32
1946,21,76.285,62.368,293.81
1947,21,76.119,62.471,294.03
1948,19,76.535,62.69,294.67
1949,20,73.681,62.901,294.02
1950,20,73.566,62.811,293.76
1951,22,75.08,63.205,295.38
1952,19,76.131,62.836,294.93
1953,19,76.485,62.812,294.95
1954,22,75.387,63.168,295.42
1955,22,75.343,63.321,295.66
1956,22,79.79,62.872,294.5
1957,21,79.348,63.366,295.55
1958,21,79.714,63.497,295.51
1959,21,79.494,63.26,295.29
1960,21,75.124,64.744,296.95
1961,21,75.014,65.026,297.02
1962,21,74.832,64.852,296.86
1963,21,75.135,65.917,297.33
1964,21,74.944,65.748,297.2
1965,21,75.405,65.796,297.43
1966,21,75.21,65.605,297.3
1967,20,77.35,63.499,296.28
1968,20,76.959,63.845,296.71
1969,20,76.956,63.669,296.5
1970,20,77.351,63.836,296.72
1971,21,78.502,63.546,296.21
1972,21,78.8,63.584,296.18
1973,21,78.532,63.714,296.44
1974,20,77.434,65.912,298.19
1975,20,77.794,65.885,298.24
1976,21,78.513,65.132,297.81
1977,21,78.813,65.16,297.78
1978,21,78.55,65.385,297.98
1979,21,78.955,65.395,297.91
1980,22,80.023,62.734,294.21
1981,22,81.217,62.752,293.8
1982,22,80.174,62.914,294.38
1983,22,80.332,62.784,294.15
1984,22,80.952,62.903,294.03
1985,22,81.21,63.163,294.17
1986,22,81.376,62.99,293.94
1987,22,84.135,63.799,293.05
1988,22,84.401,63.929,292.95
1989,22,84.3,63.632,292.84
1990,25,84.785,64.352,292.93
1991,25,84.57,64.554,293.2
1992,25,84.862,64.623,293.03
1993,25,85.085,64.56,292.83
1994,22,85.188,65.936,293.36
1995,17,73.596,71.981,294.92
1996,17,73.643,72.251,294.87
1997,17,74.214,72.213,295.47
1998,17,74.377,71.976,295.68
1999,17,74.426,72.245,295.65
2000,20,73.814,66.97,296.63
2001,20,73.586,66.973,296.46
2002,20,73.833,67.362,296.61
2003,20,73.603,67.366,296.45
2004,20,74.301,66.973,296.95
2005,20,74.31,67.346,296.94
2006,20,74.569,66.975,297.11
2007,20,74.812,66.979,297.25
2008,19,73.638,67.769,296.42
2009,19,75.126,68.443,297.34
2010,19,75.357,68.589,297.48
2011,19,75.164,68.752,297.32
2012,19,75.422,68.969,297.46
2013,20,75.863,66.995,297.83
2014,20,75.6,66.984,297.69
2015,20,75.851,67.382,297.85
2016,20,75.592,67.381,297.7
2017,20,76.153,66.974,297.97
2018,20,77.411,66.234,298.3
2019,20,77.778,66.2,298.36
2020,20,78.924,66.692,298.57
2021,20,79.22,66.723,298.54
2022,20,78.948,67.031,298.65
2023,20,78.946,67.407,298.7
2024,20,79.799,66.944,298.42
2025,21,82.423,67.033,295.84
2026,22,85.233,66.233,293.41
2027,22,85.285,66.598,293.45
2028,23,85.317,66.972,293.49
2029,23,85.754,66.963,293.15
2030,23,85.536,66.922,293.32
2031,23,85.361,67.35,293.49
2032,23,85.751,67.345,293.19
2033,23,85.551,67.191,293.34
2034,22,84.793,66.317,293.77
2035,23,84.83,66.619,293.8
2036,23,84.87,66.995,293.82
2037,23,85.099,66.985,293.65
2038,23,84.895,67.386,293.84
2039,20,84.424,67.782,294.18
2040,20,84.419,68.171,294.18
2041,20,84.665,68.172,294
2042,20,84.407,68.561,294.17
2043,21,83.74,68.585,294.73
2044,21,83.537,68.581,294.92
2045,21,83.332,68.953,295.15
2046,21,83.74,68.983,294.72
2047,20,83.165,69.103,295.35
2048,20,82.599,71.019,295.94
2049,20,82.768,70.868,295.76
2050,19,82.915,71.016,295.55
2051,19,82.743,71.171,295.74
2052,21,84.105,70.181,294.29
2053,21,84.08,70.567,294.27
2054,21,84.287,70.577,294.06
2055,21,84.048,70.954,294.24
2056,21,84.252,70.964,294.03
2057,20,83.361,69.379,295.13
2058,20,83.543,69.381,294.92
2059,21,83.358,69.797,295.12
2060,21,83.536,69.79,294.92
2061,21,83.322,70.222,295.15
2062,21,83.709,70.178,294.7
2063,21,83.904,70.178,294.49
2064,21,83.166,69.774,295.35
2065,21,82.796,69.391,295.81
2066,21,82.798,69.793,295.81
2067,20,82.785,70.564,295.78
2068,21,82.235,66.984,296.06
2069,21,82.29,67.341,296.12
2070,20,82.427,69,296.26
2071,20,82.077,68.995,296.71
2072,20,82.251,68.996,296.48
2073,20,81.69,68.189,297.1
2074,20,81.72,68.569,297.12
2075,20,81.903,68.985,296.92
2076,20,81.541,68.517,297.33
2077,20,80.128,66.978,298.28
2078,20,80.383,67.123,298.18
2079,20,80.426,67.421,298.22
2080,21,82.613,69.393,296.04
2081,21,82.615,69.789,296.04
2082,20,82.423,70.574,296.23
2083,20,81.719,70.203,297.12
2084,20,81.897,70.187,296.91
2085,20,81.693,70.579,297.1
2086,20,81.878,70.576,296.89
2087,20,81.311,70.597,297.51
2088,20,81.502,70.599,297.31
2089,20,81.721,71.799,296.74
2090,20,81.943,71.637,296.56
2091,20,81.884,71.941,296.5
2092,20,81.645,72.164,296.65
2093,20,81.659,70.957,297.07
2094,20,81.27,70.966,297.47
2095,20,81.465,70.974,297.27
2096,20,81.219,71.338,297.42
2097,20,80.853,70.966,297.84
2098,20,81.066,70.984,297.66
2099,20,80.793,71.337,297.79
2100,20,81.008,71.372,297.6
2101,19,80.174,71.845,298.02
2102,19,79.907,71.961,298.11
2103,19,80.132,72.19,297.89
2104,19,79.799,72.233,298.03
2105,38,89.619,31.916,256.57
2106,38,89.801,32.109,256.74
2107,38,89.915,32.031,256.47
2108,38,89.52,32.011,256.85
2109,37,89.599,35.882,260.54
2110,37,89.632,35.84,260.82
2111,37,89.674,36.145,260.83
2112,37,88.878,37.671,260.32
2113,37,88.507,38.081,260.71
2114,38,88.528,38.161,260.33
2115,37,88.362,38.348,260.49
2116,40,91.714,44.273,254.71
2117,40,91.951,44.437,254.65
2118,40,91.983,44.407,254.93
2119,37,97.324,45.431,255.09
2120,37,97.579,45.508,255.23
2121,37,97.523,45.567,254.92
2122,36,97.937,45.076,257.22
2123,36,97.903,45.144,256.92
2124,36,98.024,45.332,257.07
2125,36,98.136,45.701,257.11
2126,37,89.545,35.583,260.99
2127,38,88.137,38.095,261.93
2128,38,88.26,37.795,262.34
2129,38,88.321,37.865,262.09
2130,38,88.053,38.005,262.28
2131,36,88.943,42.107,261.5
2132,36,89.149,42.252,261.33
2133,36,89.086,41.969,261.25
2134,36,88.806,42.248,261.75
2135,35,87.053,42.006,263.95
2136,35,87.237,42.253,263.87
2137,36,88.174,42.512,262.72
2138,36,88.398,42.67,262.56
2139,36,88.397,43.078,262.97
2140,36,88.481,42.941,262.7
2141,36,88.615,43.688,263.54
2142,36,88.839,43.876,263.49
2143,36,88.529,43.785,263.94
2144,36,88.776,43.933,263.78
2145,35,91.388,44.287,261.9
2146,35,91.778,44.315,261.89
2147,35,91.377,44.325,262.3
2148,35,91.768,44.342,262.29
2149,35,86.819,41.837,264.28
2150,35,86.963,42.155,264.31
2151,35,92.449,44.448,265.15
2152,35,92.142,44.536,265.51
2153,35,92.474,44.471,265.54
2154,36,91.995,44.811,267.19
2155,35,92.758,44.41,265.54
2156,33,91.37,44.999,267.52
2157,36,91.75,44.935,267.53
2158,36,91.375,45.092,267.92
2159,36,91.783,45.015,267.89
2160,36,92.323,44.765,267.38
2161,36,92.113,44.859,267.56
2162,36,92.152,44.938,267.93
2163,36,92.51,44.857,267.98
2164,36,92.403,44.813,267.69
2165,32,92.584,45.055,268.71
2166,32,92.71,45.12,268.99
2167,33,89.27,45.493,273.01
2168,33,89.41,45.729,273.15
2169,33,89.128,45.63,273.28
2170,32,92.601,46.237,271.09
2171,33,89.561,45.597,272.92
2172,36,93.01,44.701,267.89
2173,36,93.401,44.608,267.88
2174,36,93.109,44.752,268.18
2175,36,93.407,44.709,268.27
2176,32,92.969,44.958,268.72
2177,32,93.007,45.076,269.07
2178,31,92.981,46.238,271.11
2179,32,93.004,46.069,270.86
2180,31,93.395,46.188,271.08
2181,31,93.129,46.376,271.33
2182,31,93.422,46.367,271.34
2183,34,87.656,46.288,274.63
2184,34,87.814,46.139,274.42
2185,34,87.755,46.556,274.75
2186,34,87.919,46.387,274.52
2187,36,98.515,47.427,257.78
2188,36,98.697,47.635,257.93
2189,36,99.072,47.743,257.92
2190,36,99.077,47.638,257.63
2191,37,102.25,47.498,257.11
2192,37,101.9,47.588,257.65
2193,37,102.17,47.489,257.5
2194,37,101.94,47.61,257.32
2195,37,101.85,47.494,259.13
2196,37,101.29,47.708,259.11
2197,37,101.57,47.627,258.72
2198,37,101.57,47.61,259.12
2199,33,105.48,60.605,266.8
2200,33,105.54,60.76,266.53
2201,33,105.44,60.995,266.78
2202,33,105.52,61.037,266.5
2203,34,89.663,48.107,273.39
2204,34,92.622,47.024,272.31
2205,34,89.803,48.504,273.51
2206,34,93.006,47.023,272.28
2207,34,93.048,47.188,272.51
2208,34,92.778,47.179,272.51
2209,31,96.04,47.128,271.77
2210,31,96.193,46.964,271.58
2211,31,96.193,47.377,271.9
2212,31,96.346,47.188,271.7
2213,32,97.667,48.93,271.38
2214,32,97.288,48.936,271.84
2215,32,97.476,48.921,271.62
2216,32,97.679,49.318,271.4
2217,32,98.57,51.766,272.37
2218,32,98.803,51.935,272.2
2219,32,98.506,51.842,272.75
2220,32,98.34,51.597,272.51
2221,34,89.366,48.082,273.59
2222,34,89.486,48.401,273.64
2223,29,88.598,51.055,279.92
2224,29,88.638,50.903,279.57
2225,29,88.991,51,279.51
2226,29,88.946,51.128,279.81
2227,29,95.37,52.189,276.59
2228,29,95.667,52.288,276.54
2229,29,95.549,52.013,276.41
2230,30,94.188,54.923,279.8
2231,30,94.451,55.059,279.7
2232,30,94.391,54.77,279.67
2233,30,96.209,53.363,277.14
2234,30,96.55,53.454,277.05
2235,30,96.596,53.684,277.24
2236,30,96.343,53.599,277.31
2237,30,97.777,54.563,277.15
2238,30,98.037,54.697,277.02
2239,30,97.895,54.841,277.27
2240,30,98.142,56.157,277.91
2241,30,98.367,56.32,277.74
2242,30,98.302,56.02,277.66
2243,33,104.91,62.98,267.49
2244,33,104.85,63.401,267.52
2245,33,104.8,62.945,267.81
2246,33,104.77,63.25,267.78
2247,33,104.66,65.337,268.03
2248,33,104.69,65.691,268.05
2249,33,104.61,65.359,268.37
2250,33,104.65,65.728,268.39
2251,32,104.41,65.436,271.82
2252,32,104.43,65.809,271.84
2253,32,104.23,65.386,272.35
2254,32,104.33,65.377,272.09
2255,33,102.51,63.78,275.48
2256,33,102.52,64.173,275.49
2257,33,102.39,63.809,275.79
2258,33,102.39,64.173,275.79
2259,33,103.15,65.944,274.1
2260,33,102.92,66.181,274.31
2261,33,103.1,66.218,274.05
2262,29,88.998,52.184,281.54
2263,28,87.423,51.688,281.98
2264,28,87.769,51.831,281.93
2265,28,87.358,51.843,282.32
2266,28,87.639,51.922,282.2
2267,29,88.562,52.239,281.94
2268,29,88.609,52.078,281.67
2269,29,88.85,52.297,281.81
2270,27,88.876,53.866,283.45
2271,27,88.995,54.134,283.56
2272,27,89.148,53.99,283.34
2273,31,94.168,56.671,280.15
2274,31,93.848,56.919,280.39
2275,31,94.209,56.959,280.31
2276,31,94.256,57.206,280.49
2277,31,95.399,58.193,281.14
2278,31,95.748,58.282,281.06
2279,31,95.793,58.11,280.83
2280,31,95.535,58.041,280.9
2281,26,93.233,62.973,284.6
2282,26,93.272,63.362,284.64
2283,26,93.023,62.962,284.8
2284,26,92.866,63.356,285.05
2285,21,98.337,71.644,280.59
2286,21,98.196,71.835,280.78
2287,21,98.085,72.198,280.74
2288,21,98.077,71.784,281.13
2289,27,96.561,66.974,283.92
2290,27,96.804,67.132,283.76
2291,27,96.854,67.441,283.8
2292,27,96.383,67.133,284.14
2293,24,87.772,62.159,289.13
2294,24,88.025,62.308,288.99
2295,24,87.941,62.009,288.9
2296,24,88.124,63.387,289.5
2297,24,88.831,63.825,289.02
2298,24,89.01,63.767,288.8
2299,24,88.918,64.187,289.12
2300,24,89.072,64.04,288.87
2301,24,88.445,63.826,289.43
2302,24,88.622,63.77,289.22
2303,24,88.692,64.036,289.29
2304,24,87.628,63.087,289.79
2305,24,87.723,63.393,289.88
2306,24,87.971,63.542,289.74
2307,24,88.145,64.974,290.33
2308,24,88.376,65.131,290.16
2309,24,88.432,65.428,290.21
2310,24,87.983,65.132,290.56
2311,24,87.243,65.436,291.42
2312,24,86.821,65.438,291.81
2313,24,87.028,65.398,291.6
2314,24,86.894,65.78,291.88
2315,24,87.095,65.743,291.67
2316,22,92.175,67.765,287.14
2317,22,92.422,67.924,286.99
2318,22,92.372,67.611,286.93
2319,22,91.992,67.939,287.36
2320,24,90.117,67.785,289.07
2321,24,90.166,68.164,289.08
2322,24,90.332,67.737,288.87
2323,24,90.351,68.006,288.9
2324,23,89.224,67.026,289.77
2325,23,89.247,67.414,289.8
2326,23,88.874,68.202,290.24
2327,23,88.888,68.596,290.25
2328,23,88.672,68.198,290.44
2329,23,88.479,68.587,290.64
2330,23,88.481,68.979,290.64
2331,24,87.363,66.15,291.54
2332,24,87.584,66.31,291.36
2333,24,86.959,66.15,291.93
2334,24,87.184,66.312,291.76
2335,24,87.141,66.002,291.72
2336,24,87.217,66.625,291.79
2337,24,87.413,66.593,291.59
2338,23,86.553,66.156,292.32
2339,23,86.781,66.312,292.15
2340,23,86.733,66.002,292.11
2341,23,86.37,66.319,292.52
2342,23,86.605,66.596,292.37
2343,23,87.669,67.79,291.45
2344,23,87.47,67.788,291.65
2345,23,87.269,68.179,291.84
2346,23,87.671,68.181,291.45
2347,23,89.422,66.993,289.57
2348,23,89.455,67.406,289.6
2349,23,88.476,69.373,290.63
2350,23,88.265,69.371,290.82
2351,23,88.465,69.767,290.61
2352,21,87.202,69.766,291.79
2353,20,87.174,70.154,291.77
2354,22,87.589,70.149,291.38
2355,22,87.382,70.182,291.57
2356,21,87.159,70.462,291.74
2357,22,87.557,70.465,291.36
2358,22,87.344,70.631,291.53
2359,20,86.787,69.757,292.19
2360,20,86.995,69.782,291.99
2361,20,86.768,70.065,292.17
2362,20,86.822,71.338,291.81
2363,20,87.032,71.385,291.61
2364,20,86.542,71.768,291.87
2365,20,86.774,71.631,291.74
2366,25,99.971,66.175,280.94
2367,25,99.603,66.194,281.34
2368,25,99.799,66.175,281.15
2369,4,57.731,84.616,255.42
2370,4,57.915,84.803,255.43
2371,4,57.771,84.567,255.8
2372,4,57.961,84.763,255.81
2373,5,58.449,84.669,257.1
2374,5,58.378,84.733,256.82
2375,5,58.657,84.876,257.04
2376,5,58.543,84.931,256.68
2377,10,56.002,74.681,266.41
2378,10,55.993,74.289,266.82
2379,10,55.961,74.397,266.53
2380,10,56.054,74.642,266.77
2381,8,59.734,80.992,262.78
2382,8,59.706,81.095,262.48
2383,8,60.069,81.099,262.83
2384,8,59.962,81.166,262.55
2385,8,60.275,82.472,261.3
2386,8,60.569,82.517,261.36
2387,8,60.683,82.02,261.71
2388,8,60.523,82.218,261.53
2389,5,58.917,88.221,259.08
2390,5,59.269,88.316,259.07
2391,5,58.925,88.271,259.46
2392,5,59.321,88.358,259.48
2393,6,55.779,89.391,259.14
2394,6,55.633,89.349,258.86
2395,6,55.543,89.93,258.98
2396,6,55.673,89.77,259.18
2397,16,56.457,95.46,265.54
2398,16,56.568,95.796,265.11
2399,16,56.545,95.813,265.51
2400,16,56.838,96.364,264.69
2401,16,56.943,96.659,264.72
2402,16,57.048,97.055,264.72
2403,16,56.784,96.416,265.05
2404,16,56.968,97.827,265.53
2405,16,56.522,95.812,265.92
2406,16,56.867,97.473,265.9
2407,16,56.916,97.843,265.92
2408,10,57.047,76.178,268.99
2409,10,57.387,76.197,269.43
2410,10,57.21,76.192,269.23
2411,10,57.406,76.595,269.42
2412,9,57.668,77.827,269.49
2413,9,57.812,77.394,269.8
2414,9,57.637,77.402,269.58
2415,9,57.841,77.771,269.76
2416,13,59.69,84.355,277.26
2417,13,59.715,84.215,277.55
2418,13,59.98,84.39,277.29
2419,13,60.095,84.292,277.56
2420,10,60.547,84.53,277.47
2421,12,59.132,83.597,278.9
2422,12,59.087,83.538,279.19
2423,12,59.39,83.542,278.87
2424,12,59.378,83.431,279.18
2425,12,59.72,83.409,279.17
2426,12,59.356,83.347,279.51
2427,12,59.713,83.305,279.48
2428,9,57.535,86.772,268.35
2429,9,57.511,86.758,268.73
2430,9,57.375,87.047,268.33
2431,9,57.359,87.05,268.73
2432,10,57.305,87.01,270.31
2433,10,57.271,87.383,270.33
2434,9,59.574,86.019,270.45
2435,9,59.746,86.171,269.88
2436,9,59.519,86.047,270.13
2437,9,59.776,86.129,270.27
2438,10,57.178,88.521,269.23
2439,10,57.233,88.54,269.58
2440,10,57.232,88.936,269.61
2441,10,57.179,88.907,269.32
2442,10,57.291,87.017,270.72
2443,10,57.275,87.389,270.72
2444,11,57.862,85.914,271.53
2445,11,57.849,85.892,271.92
2446,11,57.651,86.087,271.52
2447,10,57.646,86.066,271.91
2448,10,57.842,85.88,272.3
2449,10,57.649,86.055,272.3
2450,16,56.385,94.222,267.94
2451,16,56.389,94.619,267.93
2452,16,56.408,94.22,268.33
2453,16,56.408,94.618,268.33
2454,11,56.701,91.827,269.11
2455,11,56.633,92.233,269.1
2456,11,56.734,91.924,269.41
2457,11,56.697,92.226,269.51
2458,16,56.562,95.805,269.9
2459,16,56.59,96.202,269.9
2460,16,56.606,95.811,270.29
2461,16,56.636,96.208,270.3
2462,12,56.809,94.607,271.61
2463,12,56.749,94.61,271.34
2464,12,56.886,94.621,271.93
2465,13,57.541,93.551,273.39
2466,13,57.792,92.995,273.57
2467,13,57.657,92.967,273.27
2468,13,57.678,93.38,273.59
2469,12,56.805,95.01,271.62
2470,12,56.746,95.009,271.35
2471,12,56.814,95.413,271.61
2472,12,56.756,95.41,271.34
2473,12,56.834,95.821,271.59
2474,12,56.775,95.824,271.31
2475,14,56.871,97.033,271.15
2476,14,56.943,97.004,271.51
2477,14,57.026,96.99,271.87
2478,14,57.005,97.392,271.49
2479,12,57.085,95.786,272.62
2480,12,57.112,96.165,272.61
2481,12,57.172,95.805,272.91
2482,12,57.2,96.215,272.89
2483,13,57.814,93.418,273.94
2484,13,57.717,93.801,273.99
2485,13,57.617,93.762,273.7
2486,13,57.889,93.529,274.23
2487,13,58.028,94.599,275.99
2488,13,58.07,94.618,276.36
2489,13,57.485,96.183,273.83
2490,13,57.557,95.806,274.14
2491,13,57.577,96.204,274.12
2492,13,58.012,94.987,276.02
2493,13,57.964,94.988,275.73
2494,16,57.955,96.471,275.38
2495,16,58.039,96.643,275.6
2496,16,57.984,96.789,275.31
2497,16,58.102,97.023,275.57
2498,16,58.169,95,277.12
2499,16,58.212,95.405,277.13
2500,16,58.283,95.41,277.53
2501,16,58.27,95.82,277.14
2502,15,58.694,96.894,277.82
2503,15,58.754,96.807,278.12
2504,15,58.911,97.044,278.35
2505,15,58.818,97.087,278
2506,15,58.736,95.676,279.4
2507,15,58.851,95.875,279.6
2508,15,58.788,95.594,279.72
2509,3,61.775,83.52,254.64
2510,3,61.373,83.909,254.64
2511,3,61.487,83.622,254.59
2512,3,61.725,83.865,254.74
2513,4,66.115,84.247,256
2514,4,66.395,84.125,256.07
2515,4,66.25,84.38,256.22
2516,5,70.141,83.791,254.69
2517,4,67.694,83.648,256.32
2518,4,67.673,83.701,256.72
2519,4,67.979,83.608,256.43
2520,4,68.012,83.619,256.73
2521,8,67.72,83.688,257.51
2522,7,69.066,83.616,256.67
2523,7,69.411,83.676,256.71
2524,7,69.088,83.612,256.98
2525,7,69.37,83.655,257.13
2526,5,70.481,83.904,254.66
2527,5,71.745,84.243,254.69
2528,5,72.1,84.298,254.66
2529,6,70.362,83.944,256.3
2530,6,70.657,84.043,256.3
2531,6,70.359,83.943,256.7
2532,6,70.653,84.041,256.7
2533,6,70.984,84.148,256.7
2534,8,67.64,83.671,257.86
2535,8,67.6,83.631,258.15
2536,8,67.926,83.559,257.95
2537,8,67.758,83.105,259.57
2538,8,68.13,83.083,259.6
2539,8,68.14,83.173,259.31
2540,8,67.906,83.177,259.32
2541,7,63.281,81.484,263.61
2542,7,63.636,81.536,263.62
2543,7,63.301,81.485,263.96
2544,7,63.653,81.529,263.97
2545,7,65.737,81.756,263.92
2546,7,66.104,81.819,263.93
2547,7,66.434,81.882,263.95
2548,7,64.563,81.611,264.3
2549,7,64.471,81.605,264.69
2550,7,64.937,81.639,264.31
2551,7,64.911,81.628,264.71
2552,7,65.745,81.731,264.31
2553,8,71.059,84.039,263.87
2554,8,71.375,84.153,263.9
2555,8,71.677,84.26,263.93
2556,8,71.359,84.094,264.32
2557,4,61.379,86.682,255.95
2558,4,61.538,86.872,256.08
2559,4,61.763,86.759,255.82
2560,4,61.806,86.953,256
2561,4,61.636,91.513,255.51
2562,4,61.476,91.285,255.75
2563,4,61.716,91.449,255.9
2564,5,60.946,90.129,257.09
2565,5,61.212,90.328,257.16
2566,5,61.061,90.078,257.37
2567,5,61.588,89.98,258.44
2568,5,61.429,89.742,258.68
2569,5,61.664,89.907,258.73
2570,5,61.501,89.68,258.95
2571,5,60.96,88.994,259.88
2572,5,61.228,89.135,259.93
2573,5,60.743,88.823,260.11
2574,5,61,88.914,260.24
2575,5,63.206,90.727,259.64
2576,5,63.277,90.669,259.93
2577,5,63.361,90.923,259.49
2578,5,63.614,91.113,259.55
2579,4,61.881,91.681,255.74
2580,2,64.254,94.202,254.7
2581,2,64.4,94.034,254.54
2582,2,64.138,94.538,254.73
2583,2,64.174,94.215,255.09
2584,2,64.156,94.571,255.1
2585,3,66.202,93.739,257.53
2586,3,66.419,93.918,257.48
2587,3,66.639,94.142,257.54
2588,3,66.981,94.315,257.52
2589,3,66.711,94.065,257.26
2590,4,62.847,95.356,256.75
2591,4,62.76,95.608,256.88
2592,4,63.127,95.141,257.1
2593,4,62.93,95.376,257.14
2594,4,62.774,96.772,257.39
2595,4,62.911,97.02,257.14
2596,4,62.842,97.037,257.53
2597,4,62.994,97.373,257.56
2598,4,64.115,98.01,256.59
2599,4,64.552,97.989,256.56
2600,3,65.535,93.187,258.04
2601,3,65.519,93.221,257.72
2602,3,65.724,93.354,257.88
2603,3,66.175,93.83,257.99
2604,3,66.361,93.993,257.81
2605,4,63.012,97.682,258.34
2606,4,62.828,97.505,258.72
2607,4,62.775,97.547,259.08
2608,4,62.995,97.779,258.75
2609,5,65.474,97.737,257.99
2610,8,63.395,90.215,267.08
2611,8,63.578,90.389,267.24
2612,8,63.531,90.429,266.92
2613,8,63.731,90.618,267.07
2614,8,64.184,91.424,266.28
2615,8,64.345,91.599,266.45
2616,8,64.292,91.651,266.13
2617,8,64.442,91.85,266.3
2618,7,70.161,94.151,264.69
2619,7,69.391,93.986,266.29
2620,7,69.781,93.987,266.36
2621,7,69.361,93.926,266.72
2622,7,69.758,93.937,266.73
2623,7,70.555,94.178,264.3
2624,7,70.556,94.148,264.69
2625,7,70.952,94.147,264.69
2626,10,73,94.084,266.66
2627,10,73.376,94.11,266.67
2628,10,73.028,94.073,267.04
2629,10,73.386,94.106,267.06
2630,8,75.314,85.032,257.09
2631,8,75.658,85.125,257.05
2632,8,75.876,85.224,257.23
2633,8,75.268,85.079,257.46
2634,9,84.204,86.303,255.88
2635,9,84.552,86.24,255.89
2636,9,84.918,86.168,255.9
2637,9,85.3,86.087,255.9
2638,10,85.657,86.004,255.88
2639,9,84.234,86.303,256.28
2640,10,83.977,86.345,257.1
2641,10,84.252,86.291,257.11
2642,10,83.68,86.399,257.1
2643,9,85.3,86.079,256.31
2644,10,85.928,85.918,256.31
2645,10,86.186,85.835,256.31
2646,9,85.645,85.997,256.27
2647,10,85.856,85.92,256.74
2648,10,86.169,85.826,256.71
2649,9,85.629,85.991,256.58
2650,10,82.538,86.474,258.3
2651,10,82.926,86.441,258.31
2652,10,82.547,86.452,258.71
2653,10,82.95,86.41,258.71
2654,4,74.073,95.874,260.31
2655,4,74.159,95.787,260.67
2656,4,74.276,96.07,260.24
2657,4,74.525,96.259,260.28
2658,10,77.681,85.545,263.69
2659,10,77.777,85.628,263.41
2660,10,77.963,85.569,263.72
2661,10,80.957,86.152,261.88
2662,10,81.355,86.129,261.86
2663,10,80.972,86.056,262.28
2664,10,81.338,86.046,262.21
2665,5,76.282,96.84,262.65
2666,5,76.499,97.047,262.68
2667,5,76.398,96.718,263.23
2668,5,76.335,96.79,262.91
2669,5,77.158,97.655,261.83
2670,5,77.422,97.785,261.87
2671,5,77.174,97.638,262.1
2672,6,74.144,94.189,266.69
2673,6,74.141,94.207,267.09
2674,6,74.546,94.24,266.69
2675,6,74.549,94.275,267.09
2676,6,76.159,94.582,266.71
2677,6,76.437,94.723,266.65
2678,6,76.138,94.683,267.08
2679,6,76.399,94.77,266.94
2680,9,65.784,81.447,269.13
2681,9,65.54,81.624,269.09
2682,9,65.713,81.436,269.54
2683,9,65.522,81.603,269.39
2684,9,66.246,81.095,269.53
2685,9,66.508,80.952,269.52
2686,9,66.808,80.819,269.5
2687,9,66.77,80.784,269.79
2688,9,61.347,81.345,270.74
2689,9,61.209,81.094,271.17
2690,9,61.147,81.174,270.9
2691,9,61.453,81.263,271.08
2692,9,63.326,81.57,271.3
2693,9,63.328,81.706,271.04
2694,9,63.718,81.541,271.28
2695,9,63.702,81.685,271.02
2696,9,72.145,82.222,270.35
2697,9,71.713,81.849,270.75
2698,9,71.904,82.011,270.59
2699,9,72.173,82.103,270.74
2700,10,69.711,78.603,274.31
2701,11,69.434,77.653,275.42
2702,11,69.605,77.469,275.97
2703,11,69.535,77.553,275.71
2704,11,69.856,77.665,275.9
2705,11,69.733,77.758,275.56
2706,11,69.747,76.951,277.96
2707,11,69.98,77.169,278
2708,11,69.945,77.194,277.73
2709,11,70.199,77.404,277.97
2710,11,70.022,77.136,278.35
2711,14,68.541,75.707,279.14
2712,14,68.645,75.659,279.51
2713,14,68.805,75.882,279.18
2714,14,68.755,75.931,278.9
2715,10,60.76,84.776,277.25
2716,10,60.862,84.696,277.53
2717,10,61.114,84.811,277.67
2718,11,60.751,83.54,279.64
2719,11,60.858,83.475,279.92
2720,11,61.121,83.589,280.06
2721,11,61.026,83.668,279.76
2722,10,69.743,78.983,273.9
2723,10,69.9,79.229,273.76
2724,10,69.58,78.739,274.04
2725,11,71.21,78.771,277.18
2726,11,71.253,78.715,277.53
2727,11,71.436,78.915,277.52
2728,12,73.191,79.908,278.38
2729,12,73.44,80.048,278.3
2730,11,71.882,78.853,279.09
2731,11,71.922,78.795,279.39
2732,11,72.145,79.036,279.15
2733,11,72.317,79.211,278.99
2734,12,73.29,79.852,278.76
2735,12,73.487,79.99,278.59
2736,11,73.33,79.771,279.14
2737,12,75.719,83.026,271.57
2738,12,75.68,83.134,271.29
2739,12,75.372,82.854,271.82
2740,12,75.733,82.894,271.91
2741,12,76.093,83.087,271.59
2742,12,76.144,82.549,273.12
2743,12,76.5,82.627,273.16
2744,12,76.166,82.434,273.49
2745,12,76.543,82.535,273.51
2746,12,76.076,82.251,273.98
2747,12,76.276,82.371,273.78
2748,12,76.367,82.307,274.09
2749,12,75.44,81.234,277.1
2750,12,75.718,81.364,277.13
2751,12,75.481,81.196,277.4
2752,12,75.728,81.306,277.55
2753,12,75.975,81.487,277.15
2754,12,76.253,81.628,277.14
2755,12,75.999,81.458,277.54
2756,12,76.274,81.614,277.53
2757,13,76.076,81.431,278.33
2758,11,73.592,79.886,279.18
2759,11,73.549,79.936,278.9
2760,12,74.151,80.147,279.13
2761,12,74.366,80.318,278.79
2762,12,74.465,80.276,279.16
2763,12,74.671,80.408,278.99
2764,12,74.802,80.272,279.94
2765,12,75.074,80.435,279.89
2766,13,75.888,81.253,278.71
2767,13,75.922,81.23,279.09
2768,13,76.151,81.447,278.76
2769,12,75.363,80.629,279.95
2770,12,77.506,82.406,277.53
2771,12,77.774,82.569,277.52
2772,12,78.015,82.709,277.52
2773,12,77.776,82.56,277.92
2774,8,61.166,87.154,269.53
2775,8,61.35,87.375,269.11
2776,8,61.555,87.584,269.14
2777,8,61.371,87.354,269.52
2778,7,63.243,89.898,267.52
2779,8,63.188,89.565,268.36
2780,8,63.042,89.298,268.71
2781,8,63.24,89.511,268.73
2782,8,63.432,89.726,268.71
2783,7,63.423,90.119,267.5
2784,7,63.477,90.059,267.86
2785,8,62.79,88.78,270.32
2786,8,63.004,88.976,270.32
2787,8,63.219,89.165,270.33
2788,8,61.4,87.309,270.72
2789,8,61.591,87.517,270.72
2790,8,61.404,87.297,271.12
2791,8,61.591,87.51,271.12
2792,8,62.792,88.779,270.71
2793,8,63.486,89.33,271.11
2794,8,63.483,89.327,271.51
2795,8,63.731,89.475,271.51
2796,8,63.471,89.339,271.92
2797,8,63.732,89.474,271.92
2798,8,63.403,89.347,272.34
2799,8,63.724,89.484,272.31
2800,9,63.404,89.407,272.73
2801,9,63.717,89.513,272.7
2802,9,63.366,89.471,273.09
2803,9,63.733,89.564,273.1
2804,10,61.795,91.375,273.54
2805,9,64.575,89.894,271.91
2806,8,64.832,89.991,272.05
2807,7,64.775,90.027,271.74
2808,8,65.027,90.124,271.89
2809,8,65.348,90.283,271.91
2810,7,66.415,91.532,270.84
2811,8,65.615,90.379,272.05
2812,9,64.314,89.727,272.33
2813,9,64.581,89.835,272.33
2814,8,65.123,90.078,272.26
2815,7,66.518,91.896,270.35
2816,7,66.779,92.011,270.49
2817,7,66.676,92.104,270.19
2818,7,66.965,92.225,270.31
2819,10,61.576,91.664,273.5
2820,7,66.321,91.626,270.55
2821,7,66.565,91.736,270.69
2822,7,66.688,91.67,270.97
2823,10,70.152,93.831,267.52
2824,10,70.166,93.771,267.88
2825,10,69.381,93.45,269.09
2826,10,69.406,93.363,269.43
2827,10,69.769,93.484,269.12
2828,10,69.788,93.397,269.48
2829,10,70.547,93.842,267.52
2830,10,70.559,93.784,267.89
2831,10,71.33,93.823,267.92
2832,10,71.717,93.86,267.92
2833,10,71.356,93.767,268.28
2834,10,71.737,93.805,268.3
2835,8,70.587,92.76,272.31
2836,8,70.968,92.779,272.39
2837,8,70.585,92.663,272.71
2838,8,70.976,92.696,272.74
2839,8,71.337,92.801,272.41
2840,8,71.374,92.72,272.76
2841,9,61.842,87.633,274.29
2842,9,61.959,87.912,274.32
2843,9,61.775,87.347,274.68
2844,9,61.887,87.614,274.65
2845,10,62.002,86.727,276.35
2846,10,61.995,86.349,276.83
2847,10,61.909,86.425,276.53
2848,10,62.089,86.617,276.69
2849,10,61.672,89.626,274.28
2850,10,61.334,89.671,274.38
2851,10,60.933,89.801,274.01
2852,10,61.308,89.789,274
2853,10,61.71,91.464,273.95
2854,9,63.882,89.909,275.5
2855,9,63.881,89.918,275.88
2856,9,63.616,90.048,275.55
2857,9,63.6,90.031,275.29
2858,10,62.668,90.4,276.76
2859,10,62.95,90.307,276.62
2860,10,62.735,90.46,276.47
2861,10,63.303,90.144,276.59
2862,10,64.563,89.712,273.95
2863,10,64.554,89.7,274.32
2864,10,64.934,89.749,273.94
2865,10,64.925,89.711,274.31
2866,11,66.512,89.963,274.34
2867,11,66.812,90.014,274.44
2868,11,66.13,89.782,274.69
2869,11,66.519,89.852,274.71
2870,9,64.662,89.57,276.28
2871,9,64.599,89.538,276.66
2872,9,65.002,89.493,276.31
2873,9,64.982,89.436,276.68
2874,10,62.228,86.569,277.05
2875,10,62.316,86.84,276.93
2876,12,62.791,87.126,277.64
2877,12,62.687,87.235,277.35
2878,12,62.84,87.41,277.54
2879,12,62.881,87.014,277.91
2880,10,62.204,85.394,278.68
2881,10,62.409,85.549,278.83
2882,10,62.321,85.627,278.54
2883,10,62.529,85.806,278.68
2884,13,63.536,89.621,277.6
2885,13,63.831,89.553,277.55
2886,13,63.351,89.409,277.82
2887,13,63.784,89.365,277.82
2888,13,63.2,89.662,277.67
2889,10,64.591,89.126,277.97
2890,10,64.597,88.965,278.24
2891,10,64.974,89.099,277.89
2892,10,65.021,88.935,278.26
2893,13,65.021,88.678,278.73
2894,13,64.745,88.435,278.99
2895,13,65.029,88.503,279.01
2896,8,67.759,90.162,275.07
2897,8,68.038,90.307,275.14
2898,8,68.236,90.495,275.08
2899,8,69.195,91.544,274.85
2900,8,69.045,91.286,275.09
2901,8,69.314,91.484,275.15
2902,8,69.575,91.6,275.29
2903,8,67.981,90.021,275.66
2904,10,67.372,88.587,279.47
2905,10,67.751,88.633,279.51
2906,10,67.383,88.499,279.75
2907,10,67.792,88.535,279.86
2908,10,61.541,91.648,273.79
2909,8,70.994,92.232,274.7
2910,8,70.649,92.097,275.02
2911,8,71.02,92.153,275.03
2912,8,71.4,92.188,275.07
2913,7,73.764,94.156,267.48
2914,7,74.137,94.225,267.5
2915,7,73.773,94.156,267.87
2916,7,74.138,94.239,267.9
2917,7,75.023,94.576,268.33
2918,7,74.976,94.601,268.71
2919,7,75.345,94.717,268.31
2920,7,75.253,94.746,268.7
2921,9,74.975,94.122,271.44
2922,9,75.247,94.293,271.51
2923,9,75.074,94.076,271.74
2924,7,76.935,95.153,271.96
2925,7,77.238,95.214,272.06
2926,7,76.988,95.014,272.29
2927,7,77.385,95.118,272.32
2928,10,78.575,93.951,274.82
2929,10,78.968,93.95,274.81
2930,10,78.97,93.806,275.09
2931,10,79.355,93.927,274.79
2932,11,79.902,93.633,275.26
2933,10,78.571,93.026,276.33
2934,10,78.984,93.087,276.32
2935,10,78.569,92.699,276.8
2936,10,78.956,92.739,276.84
2937,11,80.155,93.836,274.69
2938,11,80.201,93.603,275.23
2939,11,80.144,93.728,274.96
2940,11,83.906,92.43,276.85
2941,11,83.347,92.726,276.31
2942,11,83.736,92.632,276.3
2943,11,83.333,92.629,276.69
2944,11,82.155,92.258,278.33
2945,11,82.533,92.381,278
2946,11,82.55,92.264,278.33
2947,11,82.179,92.127,278.65
2948,19,84.99,95.913,279.95
2949,19,84.862,96.133,279.82
2950,20,85.266,96.532,279.02
2951,20,85.402,96.316,279.14
2952,20,85.539,96.428,278.89
2953,19,84.59,96.223,279.94
2954,19,56.925,103.44,256.75
2955,19,57.044,103.75,256.74
2956,19,56.959,103.41,257.14
2957,19,57.07,103.74,257.12
2958,19,56.902,98.63,258.34
2959,19,56.837,99.026,258.01
2960,19,56.905,99.027,258.34
2961,19,56.966,98.626,258.7
2962,19,57.165,98.221,260.46
2963,19,57.126,98.661,260.25
2964,19,57.15,98.626,260.55
2965,19,57.163,104.01,258.74
2966,19,57.201,104.29,258.74
2967,19,57.156,103.91,259.17
2968,19,57.187,104.26,259.14
2969,20,58.538,107.44,255.59
2970,19,57.068,108.82,256.34
2971,19,57.077,108.81,256.64
2972,19,57.218,109.04,256.66
2973,20,58.653,107.8,255.56
2974,20,58.715,108.09,255.43
2975,20,58.708,107.7,255.93
2976,20,59.137,109.24,255.03
2977,20,59.379,109.37,255.15
2978,20,59.323,109.53,254.86
2979,20,59.628,109.54,255.19
2980,18,57.177,99.419,263.1
2981,18,57.163,99.037,263.48
2982,18,57.174,99.422,263.49
2983,18,57.204,99.808,263.5
2984,18,57.403,100.96,263.91
2985,18,57.481,101.33,263.54
2986,18,57.51,101.31,263.93
2987,18,57.632,101.59,263.96
2988,16,57.127,98.356,264.41
2989,16,57.121,98.631,264.4
2990,16,57.143,98.657,264.11
2991,16,57.093,98.609,264.75
2992,15,57.279,100.23,265.1
2993,15,57.286,100.25,265.5
2994,15,57.358,100.6,265.12
2995,15,57.365,100.61,265.52
2996,16,56.959,98.221,265.93
2997,15,56.973,98.6,266.33
2998,15,57.034,98.983,266.32
2999,15,57.102,99.344,266.32
3000,15,57.018,98.979,266.72
3001,17,57.74,107.42,263.56
3002,17,57.638,107.43,263.28
3003,17,57.56,107.68,262.97
3004,17,57.682,107.84,263.18
3005,18,60.182,109.75,265.47
3006,18,60.428,109.93,265.52
3007,18,60.176,109.38,265.9
3008,18,60.059,109.5,265.61
3009,18,58.895,111.47,262.37
3010,18,59.029,111.34,262.63
3011,18,59.162,111.21,262.89
3012,18,59.422,111.34,263.02
3013,18,60.539,111.8,263.5
3014,18,60.676,111.66,263.75
3015,15,58.441,103.09,269.55
3016,15,58.541,103.44,269.5
3017,15,58.38,102.8,269.68
3018,15,58.537,103.04,269.91
3019,14,57.435,98.597,271.91
3020,14,57.502,98.884,271.8
3021,14,57.564,98.791,272.11
3022,13,57.917,99.275,272.59
3023,13,57.981,99.184,272.9
3024,13,58.066,99.466,272.78
3025,14,58.661,100.13,273.49
3026,14,58.831,100.37,273.57
3027,14,58.757,100.43,273.3
3028,14,58.984,100.65,273.54
3029,14,58.903,101.85,271.94
3030,15,59.279,104.27,270.34
3031,14,58.893,101.45,272.35
3032,14,58.815,101.57,272.07
3033,14,59.058,101.79,272.29
3034,15,60.232,103.35,272.27
3035,15,60.367,103.22,272.51
3036,15,60.646,103.34,272.61
3037,15,60.502,103.47,272.37
3038,15,59.259,104.68,269.95
3039,15,59.18,104.4,270.07
3040,15,59.434,104.61,270.28
3041,14,58.287,98.511,274.69
3042,14,58.357,98.455,274.98
3043,14,58.426,98.764,274.78
3044,14,58.499,98.645,275.16
3045,15,59.782,101.01,274.74
3046,15,59.677,101.12,274.36
3047,15,59.84,101.36,274.31
3048,15,60.039,101.55,274.38
3049,16,60.232,100.14,277.1
3050,16,60.313,100.06,277.38
3051,16,60.437,100.33,277.16
3052,16,60.55,100.22,277.54
3053,4,64.137,98.232,256.83
3054,4,64.522,98.228,256.74
3055,4,65.429,98.114,257.61
3056,4,65.53,98.092,258
3057,4,65.577,98.365,257.9
3058,6,66.66,101.78,258.53
3059,6,66.752,101.8,258.17
3060,6,66.718,102.09,258.52
3061,6,66.754,102.06,258.22
3062,7,68.617,103.3,255.04
3063,7,68.619,103.02,255.51
3064,7,68.293,103.1,255.6
3065,7,68.437,103.2,255.3
3066,7,69.376,102.87,255.93
3067,7,69.729,103.05,255.59
3068,7,69.763,102.97,255.93
3069,7,70.111,103.08,255.96
3070,7,69.501,102.81,256.22
3071,9,70.228,102.92,257.14
3072,10,70.251,102.88,257.52
3073,9,70.433,103.09,256.74
3074,9,70.525,103.08,257.15
3075,9,70.731,103.22,256.98
3076,10,70.531,103.03,257.53
3077,10,70.788,103.17,257.57
3078,11,67.753,101.33,258.8
3079,11,67.677,101.1,259.27
3080,11,67.591,101.14,258.99
3081,11,67.903,101.29,259.17
3082,10,70.269,102.85,257.9
3083,11,68.556,101.47,260.34
3084,11,68.744,101.63,260.18
3085,11,68.777,101.6,260.49
3086,7,70.569,102.91,258.73
3087,7,70.897,103.09,258.74
3088,7,70.345,102.78,258.9
3089,7,70.628,102.9,259.12
3090,10,72.253,103.66,260.3
3091,10,72.532,103.8,260.3
3092,10,72.266,103.63,260.69
3093,10,72.544,103.77,260.7
3094,9,73.097,104.4,257.37
3095,9,73.373,104.47,257.51
3096,9,73.146,104.37,257.69
3097,9,73.45,104.45,257.88
3098,9,72.28,103.61,261.08
3099,9,72.552,103.75,261.11
3100,9,72.09,103.49,261.55
3101,9,72.295,103.6,261.39
3102,16,65.576,106.06,262.22
3103,16,65.743,106.21,262.4
3104,16,65.65,106.34,262.14
3105,18,65.151,104.81,264.06
3106,18,65.305,104.98,263.87
3107,17,63.733,107.44,263.14
3108,17,63.831,107.43,263.54
3109,17,65.755,108.59,261.59
3110,17,66.16,108.59,261.52
3111,17,65.984,109.2,261.81
3112,17,66.167,108.99,261.6
3113,17,63.943,107.67,263.14
3114,17,63.979,107.64,263.4
3115,17,61.588,104.82,265.6
3116,17,61.77,104.98,265.4
3117,17,62.117,105.13,265.42
3118,17,61.722,104.72,265.85
3119,18,65.078,104.89,264.31
3120,18,65.255,105.12,264.22
3121,17,65.753,106.13,265.39
3122,17,65.933,106.36,265.55
3123,17,66.038,106.24,265.25
3124,16,65.341,107.87,264.67
3125,16,65.612,107.97,264.78
3126,16,65.498,108.08,264.52
3127,16,65.76,108.17,264.64
3128,15,67.331,107.38,263.15
3129,15,67.516,107.58,262.98
3130,15,67.781,107.69,263.1
3131,15,67.602,107.51,263.27
3132,15,69.195,108.3,263.91
3133,15,68.177,110.33,263.15
3134,15,68.453,110.39,263.28
3135,15,68.166,110.23,263.51
3136,15,68.544,110.35,263.54
3137,16,72.892,109.88,263.8
3138,16,73.231,109.96,263.81
3139,16,67.678,109.16,265.13
3140,16,67.712,109,265.37
3141,16,67.95,109.25,265.22
3142,16,68.104,109.09,265.48
3143,15,69.02,108.08,264.24
3144,15,69.245,108.26,264.24
3145,19,69.098,108.6,265.61
3146,19,69.361,108.63,265.35
3147,19,68.951,109.03,265.61
3148,19,69.314,109.01,265.47
3149,16,73.133,110.02,264.07
3150,5,77.896,98.075,256.68
3151,5,78.217,98.116,256.7
3152,5,77.617,98.034,257.03
3153,5,77.904,98.074,257.06
3154,5,79.324,98.335,258.7
3155,5,79.668,98.4,258.68
3156,6,79.357,98.373,259.12
3157,5,79.645,98.419,258.98
3158,5,79.234,98.435,260.18
3159,5,79.459,98.514,260.35
3160,5,79.195,98.449,260.5
3161,9,73.751,104.49,258.33
3162,9,73.539,104.37,258.77
3163,9,73.518,104.39,258.5
3164,9,73.821,104.48,258.71
3165,16,75.326,105.01,259.5
3166,16,75.592,105.13,259.5
3167,16,75.328,105.01,259.9
3168,15,75.593,105.13,259.9
3169,16,77.033,105.7,258.72
3170,16,77.034,105.7,259.11
3171,16,77.363,105.79,258.7
3172,16,77.359,105.8,259.09
3173,8,79.138,106.38,259.84
3174,8,79.422,106.49,259.89
3175,8,79.089,106.41,260.43
3176,8,79.121,106.39,260.11
3177,9,84.273,109.36,257.13
3178,9,84.351,109.63,257.24
3179,9,84.053,109.14,257.47
3180,9,84.186,109.42,257.51
3181,9,84.304,109.79,257.53
3182,9,84.326,110.19,257.59
3183,9,84.398,109.94,257.29
3184,14,80.372,106.79,258.65
3185,14,80.635,106.92,258.7
3186,14,80.349,106.81,258.91
3187,12,83.172,108.45,260.83
3188,8,83.195,108.4,259.1
3189,8,83.405,108.64,259.09
3190,8,83.551,108.87,259.24
3191,9,84.219,109.82,257.93
3192,8,83.169,108.41,259.49
3193,9,83.158,108.42,259.88
3194,9,83.341,108.65,259.9
3195,9,83.153,108.42,260.25
3196,12,83.333,108.66,260.29
3197,12,83.501,108.94,260.32
3198,12,83.16,108.43,260.52
3199,12,83.315,108.66,260.67
3200,12,83.489,108.95,260.71
3201,6,81.655,99.567,263.53
3202,6,81.653,99.564,263.92
3203,6,81.961,99.645,263.22
3204,6,81.95,99.665,263.55
3205,15,76.03,105.5,262.3
3206,15,76.294,105.63,262.34
3207,15,76.001,105.54,262.69
3208,15,76.267,105.67,262.72
3209,14,74.08,110.32,263.78
3210,14,74.135,110.63,264
3211,14,74.314,110.44,263.69
3212,14,74.397,110.68,263.79
3213,16,76.32,106.05,264.44
3214,16,76.277,106.1,264.74
3215,16,76.55,106.24,264.69
3216,16,76.239,106.16,265.1
3217,22,75.726,108.56,265.97
3218,22,75.741,108.65,266.33
3219,22,76.033,108.51,265.98
3220,22,76.058,108.54,266.34
3221,14,80.584,106.95,262.3
3222,14,80.889,107.07,262.32
3223,14,80.257,106.83,262.69
3224,14,80.587,106.94,262.7
3225,9,82.767,108,261.92
3226,9,82.98,108.21,261.92
3227,9,82.534,107.82,262.31
3228,9,82.776,108.01,262.32
3229,10,83.986,110.48,261.53
3230,10,84.054,110.74,261.54
3231,10,83.995,110.49,261.93
3232,10,84.064,110.75,261.93
3233,17,85.333,110.55,263.42
3234,17,85.712,110.53,263.41
3235,22,82.169,107.37,265.91
3236,22,82.432,107.52,265.91
3237,22,82.703,107.69,265.9
3238,22,82.459,107.48,266.32
3239,21,83.511,108.55,265.08
3240,21,83.713,108.73,265.12
3241,21,83.403,108.31,265.54
3242,21,83.565,108.51,265.38
3243,21,67.326,117.74,258.29
3244,21,67.75,117.8,258.29
3245,21,67.477,117.62,258.53
3246,21,67.785,117.65,258.56
3247,18,60.965,111.74,263.88
3248,18,60.909,111.93,263.63
3249,19,63.354,112.93,263.88
3250,19,63.73,113.06,263.91
3251,19,63.31,112.6,264.31
3252,19,63.489,112.81,264.13
3253,19,63.316,112.29,264.74
3254,19,63.165,112.4,264.5
3255,19,63.466,112.48,264.57
3256,19,65.796,112.46,265.77
3257,19,66.156,112.52,265.82
3258,19,65.745,112.29,266.01
3259,19,66.102,112.34,266.07
3260,13,72.938,111.5,263.83
3261,13,73.308,111.52,263.91
3262,13,73.099,111.66,263.66
3263,13,73.358,111.7,263.7
3264,20,69.339,115.86,261.94
3265,20,69.719,115.91,261.96
3266,20,69.567,116.02,261.72
3267,19,67.746,112.54,266.24
3268,19,67.744,112.7,266.01
3269,19,68.132,112.57,266.27
3270,19,68.148,112.73,266.04
3271,20,70.943,112.45,266.55
3272,20,70.546,112.27,266.79
3273,20,70.942,112.09,267.01
3274,20,70.943,112.27,266.79
3275,12,76.213,112.2,260.71
3276,12,76.597,112.13,260.67
3277,12,76.614,112.29,260.43
3278,12,76.35,112.34,260.46
3279,11,78.763,114.25,259.23
3280,11,78.149,114.31,259.59
3281,11,78.199,114.47,259.34
3282,11,78.516,114.19,259.5
3283,12,84.165,116.29,255.96
3284,18,85.761,116.59,255.08
3285,18,86.161,116.6,255.08
3286,18,85.757,116.48,255.41
3287,18,86.156,116.48,255.4
3288,12,83.769,116.18,256.27
3289,12,84.165,116.18,256.27
3290,12,84.559,116.19,256.27
3291,9,81.559,112.35,260.52
3292,9,81.579,112.63,260.53
3293,9,82.019,112.62,260.19
3294,9,81.8,112.63,260.37
3295,13,84.261,111,259.16
3296,12,84.301,111.43,259.19
3297,13,84.263,110.98,259.57
3298,11,84.342,111.31,259.6
3299,12,84.377,111.63,259.4
3300,12,84.38,111.87,259.36
3301,12,76.618,112.27,262.28
3302,11,76.169,113.57,261.11
3303,11,76.588,113.61,261.24
3304,11,76.367,113.71,260.93
3305,11,76.177,113.46,261.48
3306,13,75.017,111.04,263.1
3307,13,75.089,111.42,263.25
3308,13,74.868,111.06,263.42
3309,13,74.877,111.42,263.47
3310,13,73.692,111.72,263.73
3311,12,76.972,111.99,262.08
3312,12,76.99,112.28,262.21
3313,12,76.961,112.61,262.17
3314,20,74.576,111.41,267.11
3315,20,74.725,111.58,266.88
3316,20,74.409,111.63,266.93
3317,17,85.33,110.92,262.99
3318,17,85.718,110.91,262.99
3319,16,63.946,102.52,273.55
3320,16,64.018,103.55,272.8
3321,16,64.345,103.57,272.91
3322,16,63.66,102.69,273.58
3323,16,64.06,103.87,272.72
3324,16,64.374,103.89,272.88
3325,8,71.039,103.24,269.51
3326,8,71.413,103.31,269.52
3327,8,71.036,103.24,269.91
3328,8,71.399,103.3,269.94
3329,8,72.304,103.61,269.23
3330,8,72.556,103.71,269.07
3331,8,72.597,103.73,269.5
3332,8,72.874,103.85,269.1
3333,19,63.326,110.3,267.52
3334,19,63.388,110.11,267.79
3335,19,63.736,110.17,267.9
3336,19,63.695,110.36,267.65
3337,19,63.754,110.56,267.45
3338,19,63.96,110.43,267.71
3339,19,64.106,110.64,267.53
3340,16,61.736,105,271.8
3341,16,61.871,105.25,271.68
3342,16,62.167,105.28,271.71
3343,16,62.13,105.52,271.55
3344,16,62.914,105.31,271.75
3345,16,62.909,105.57,271.6
3346,16,63.305,105.31,271.77
3347,16,63.295,105.57,271.62
3348,17,62.515,104.78,272.03
3349,17,62.522,105.03,271.89
3350,17,62.898,104.53,272.19
3351,17,62.891,104.79,272.05
3352,16,62.904,105.03,271.91
3353,16,63.288,105.04,271.92
3354,17,64.938,105.36,272.33
3355,17,64.791,105.12,272.49
3356,17,65.079,105.23,272.62
3357,25,66.539,106.25,272.75
3358,25,66.41,106.4,272.51
3359,25,66.692,106.48,272.59
3360,25,66.547,106.63,272.34
3361,23,71.186,106.03,269.5
3362,23,71.168,106.05,269.81
3363,23,71.401,106.26,269.15
3364,23,71.335,106.28,269.54
3365,19,71.611,106.76,269.49
3366,19,71.544,106.8,269.76
3367,19,71.516,107.19,270.13
3368,19,71.606,107.08,269.86
3369,19,67.354,110.34,268.84
3370,19,67.362,110.54,268.64
3371,19,67.733,110.37,268.87
3372,19,67.748,110.57,268.67
3373,19,68.122,110.19,269.1
3374,19,68.083,110.39,268.89
3375,19,68.498,110.23,269.09
3376,19,68.352,110.41,268.9
3377,19,71.031,106.22,271.17
3378,19,70.996,106.62,271.18
3379,19,70.943,106.21,271.53
3380,19,70.845,106.6,271.51
3381,19,70.539,106.25,272.37
3382,19,70.749,106.1,272.2
3383,19,70.645,106.37,272.08
3384,19,70.422,106.5,272.21
3385,17,65.328,100.99,276.75
3386,16,63.633,102.62,273.98
3387,16,63.391,102.75,273.71
3388,16,62.898,102.73,274.41
3389,16,63.27,102.69,274.39
3390,16,62.888,102.68,274.77
3391,16,63.262,102.7,274.76
3392,15,60.918,101.5,275.97
3393,15,61.066,101.7,275.81
3394,15,61.321,101.81,275.96
3395,15,61.145,101.62,276.11
3396,17,63.709,102.7,276.75
3397,17,65.457,101.26,276.76
3398,17,65.621,101.51,276.81
3399,25,64.889,103.52,276.37
3400,25,64.935,103.38,276.71
3401,25,65.278,103.5,276.75
3402,25,65.16,103.6,276.49
3403,17,65.377,99.17,277.92
3404,17,65.2,99.504,277.96
3405,17,65.347,99.099,278.32
3406,17,65.183,99.359,278.32
3407,17,65.385,100.97,277.16
3408,17,65.856,98.338,280.02
3409,17,65.919,98.377,279.76
3410,16,61.529,101.21,277.36
3411,16,61.736,101.47,277.16
3412,16,61.794,101.32,277.5
3413,16,62.117,101.49,277.57
3414,16,63.468,102.48,277.01
3415,16,63.57,102.4,277.31
3416,16,63.867,102.5,277.4
3417,16,62.509,101.51,277.97
3418,16,62.675,101.7,277.81
3419,16,62.783,101.6,278.09
3420,18,69.757,103.95,277.69
3421,18,70.157,103.99,277.7
3422,18,70.152,104.13,277.45
3423,18,68.272,101.75,279.57
3424,18,68.301,101.72,279.94
3425,18,68.417,101.99,279.61
3426,19,70.56,103.45,278.76
3427,19,70.557,103.58,278.5
3428,19,70.954,103.46,278.77
3429,19,70.953,103.6,278.51
3430,25,65.495,104.48,274.61
3431,25,65.754,104.58,274.76
3432,25,66.086,104.75,274.8
3433,25,65.603,104.33,275.17
3434,20,68.562,105.42,274.74
3435,20,68.571,105.28,275.02
3436,20,68.954,105.44,274.75
3437,20,68.957,105.3,275.03
3438,21,70.139,104.92,275.84
3439,18,68.961,104.64,276.35
3440,18,69.355,104.66,276.36
3441,18,68.966,104.48,276.62
3442,18,69.349,104.51,276.64
3443,21,69.748,104.67,276.38
3444,21,69.748,104.8,276.12
3445,21,70.142,104.68,276.38
3446,21,71.369,104.53,276.65
3447,21,72.133,104.49,276.62
3448,21,72.52,104.46,276.6
3449,21,71.418,104.41,276.92
3450,21,71.15,104.41,276.93
3451,21,72.149,104.38,276.9
3452,21,72.543,104.25,277.15
3453,8,74.496,105.1,268.73
3454,8,74.691,105.31,268.74
3455,8,74.882,105.53,268.74
3456,8,74.487,105.11,269.13
3457,22,77.723,107.9,269.15
3458,22,77.89,107.67,269.29
3459,22,77.639,107.75,269.46
3460,21,78.178,106.63,271.51
3461,21,77.763,106.54,271.89
3462,21,78.133,106.51,271.81
3463,21,78.599,106.34,271.98
3464,21,79.31,105.67,273
3465,21,79.613,105.62,272.95
3466,21,79.359,105.82,272.73
3467,21,79.764,105.74,272.7
3468,21,82.091,107.14,267.56
3469,21,81.802,106.97,267.92
3470,21,82.11,107.08,267.95
3471,21,82.391,107.18,267.98
3472,21,81.333,106.67,269.15
3473,21,81.352,106.62,269.53
3474,21,81.704,106.73,269.16
3475,21,81.917,106.82,268.97
3476,21,86.18,107.09,268.42
3477,21,86.107,107.28,268.19
3478,21,86.172,106.21,269.52
3479,21,85.346,107.73,267.84
3480,21,85.76,107.85,267.51
3481,21,85.706,107.68,267.8
3482,21,86.004,107.63,267.74
3483,20,78.051,100.91,279.83
3484,22,76.536,104.12,276.64
3485,22,76.16,104.14,276.72
3486,22,76.324,103.22,278.13
3487,22,76.025,103.27,278.19
3488,22,76.524,103.34,277.86
3489,22,76.168,103.39,277.95
3490,22,76.573,102.3,279.24
3491,22,76.506,102.5,279.02
3492,20,79.309,102.16,277.48
3493,20,79.603,102.04,277.36
3494,20,79.743,102.18,277.1
3495,20,79.456,102.29,277.22
3496,21,78.565,102.62,277.54
3497,21,78.123,102.93,277.46
3498,21,78.166,103.09,277.23
3499,21,77.61,103.25,277.38
3500,21,77.757,103.36,277.13
3501,21,77.333,103.32,277.44
3502,21,77.399,103.5,277.16
3503,21,77.722,102.53,278.23
3504,21,78.539,102.98,277.11
3505,22,76.966,102.19,279.13
3506,22,77.098,102.34,278.86
3507,21,77.779,102.32,278.44
3508,21,77.521,102.41,278.51
3509,23,77.329,101.34,279.91
3510,23,77.383,101.52,279.65
3511,23,77.772,101.01,279.94
3512,23,77.617,101.26,279.78
3513,20,82.593,100.64,276.34
3514,20,82.587,100.23,276.73
3515,20,82.723,100.39,276.49
3516,20,82.438,100.49,276.59
3517,21,80.136,103.75,275.1
3518,21,80.192,103.94,274.86
3519,21,80.427,103.68,274.99
3520,21,80.574,103.83,274.74
3521,20,82.043,101.68,275.78
3522,20,81.754,101.8,275.88
3523,20,81.909,101.94,275.64
3524,20,81.889,101.53,276.02
3525,20,81.407,100.67,277.18
3526,20,81.259,100.92,277.06
3527,20,81.406,100.28,277.57
3528,20,81.991,100.04,277.35
3529,20,81.725,100.55,277.05
3530,20,81.777,100.74,276.83
3531,20,81.531,100.82,276.94
3532,20,81.724,100.15,277.45
3533,20,81.777,100.33,277.23
3534,22,75.719,105.1,274.74
3535,22,75.763,104.96,275.06
3536,22,76.145,104.98,275.09
3537,22,76.139,105.11,274.83
3538,22,75.746,104.19,276.73
3539,22,75.749,104.32,276.48
3540,20,71.728,111.34,267.85
3541,20,71.735,110.95,268.26
3542,20,71.733,111.15,268.06
3543,20,72.121,111.31,267.82
3544,20,74.109,111.28,267.39
3545,12,59.155,83.215,280.47
3546,12,59.135,83.178,280.77
3547,12,58.935,83.395,280.72
3548,12,59.107,83.139,281.14
3549,12,59.401,83.116,280.35
3550,12,59.525,82.805,281.3
3551,12,59.802,82.742,281.25
3552,12,59.471,82.756,281.6
3553,12,59.782,82.642,281.58
3554,12,59.257,82.917,281.54
3555,15,59.035,83.099,281.93
3556,15,58.885,83.398,281.94
3557,15,59.025,83.085,282.32
3558,15,58.893,83.404,282.33
3559,13,58.961,83.413,283.1
3560,12,59.838,82.366,282.41
3561,12,59.605,82.502,282.31
3562,13,60.525,82.312,282.39
3563,12,59.55,82.419,282.87
3564,12,59.79,82.31,282.75
3565,12,59.377,82.605,282.72
3566,12,59.572,82.454,282.58
3567,13,60.151,82.2,282.78
3568,13,60.523,82.189,282.77
3569,13,60.506,82.087,283.12
3570,13,58.856,83.788,282.73
3571,13,58.908,83.799,283.1
3572,13,59.554,82.385,283.43
3573,13,59.778,82.236,283.56
3574,13,59.409,82.589,283.55
3575,15,59.814,82.255,283.93
3576,15,59.613,82.446,283.98
3577,13,59.577,82.399,283.71
3578,15,59.87,82.318,284.27
3579,15,59.666,82.567,284.35
3580,13,58.974,83.805,283.48
3581,13,58.953,84.99,283.52
3582,14,59.019,84.586,283.92
3583,13,59.006,84.987,283.92
3584,14,59.098,84.56,284.34
3585,14,59.064,84.983,284.32
3586,14,59.144,84.681,284.64
3587,13,59.128,84.99,284.73
3588,14,59.166,85.099,285.04
3589,15,59.447,84.193,285.53
3590,15,59.364,84.577,285.55
3591,15,59.504,84.301,285.82
3592,15,59.63,84.126,286.01
3593,12,59.098,86.872,280.32
3594,13,59.113,86.896,280.72
3595,13,59.097,87.032,281.12
3596,14,59.013,87.827,281.58
3597,14,58.967,88.211,281.56
3598,12,59.209,87.195,280.31
3599,13,59.195,87.208,280.64
3600,13,59.168,87.254,280.91
3601,14,58.94,87.803,281.96
3602,14,58.89,88.178,281.94
3603,13,59.004,88.628,281.19
3604,13,58.946,89.011,281.16
3605,13,58.91,88.587,281.55
3606,13,58.754,89.166,281.69
3607,15,58.676,88.668,283.13
3608,15,58.612,89.056,283.12
3609,17,58.516,90.214,282.33
3610,17,58.507,90.61,282.33
3611,14,58.526,91.406,282.32
3612,17,58.51,90.608,282.72
3613,14,58.547,91.403,282.72
3614,13,58.958,85.387,283.53
3615,13,58.997,85.391,283.92
3616,14,59.039,85.394,284.32
3617,14,59.084,85.401,284.73
3618,14,59.136,85.404,285.14
3619,14,59.086,85.805,285.13
3620,15,58.676,88.657,283.52
3621,15,58.618,89.052,283.52
3622,17,58.644,91.01,283.91
3623,17,58.665,90.611,284.29
3624,17,58.702,91.014,284.31
3625,16,58.719,91.316,284.23
3626,16,59.025,89.012,286.27
3627,16,58.93,89.405,285.91
3628,16,59.022,89.409,286.27
3629,16,59.033,89.806,286.27
3630,18,58.606,93.017,281.53
3631,17,58.511,93.785,280.32
3632,17,58.563,93.787,280.72
3633,17,58.553,94.165,280.31
3634,17,58.618,94.172,280.71
3635,18,58.583,93.409,281.12
3636,18,58.631,93.42,281.53
3637,14,58.554,91.799,282.32
3638,14,58.583,91.799,282.72
3639,17,58.974,94.58,281.93
3640,17,58.946,94.2,282.34
3641,17,59.066,94.565,282.31
3642,17,59.112,94.48,282.61
3643,15,59.113,95.282,281.42
3644,15,59.292,95.848,281.17
3645,15,59.439,96.18,281.12
3646,15,59.252,95.481,281.59
3647,15,59.401,95.819,281.55
3648,15,59.491,96.087,281.42
3649,15,59.167,95.213,281.72
3650,18,59.962,93.641,286.16
3651,18,60.15,93.809,286.33
3652,16,60.463,95.433,284.77
3653,16,60.408,95.551,284.49
3654,16,60.648,95.698,284.7
3655,21,60.648,96.493,283.43
3656,16,60.618,95.382,285.11
3657,15,60.738,95.621,284.96
3658,15,59.656,87.353,287.99
3659,16,60.24,85.822,288.63
3660,16,60.412,85.749,288.87
3661,16,60.368,86.027,288.91
3662,15,59.819,86.986,288.25
3663,15,59.819,87.368,288.3
3664,15,59.946,87.519,288.55
3665,18,60.605,90.616,289.13
3666,18,60.649,90.98,289.05
3667,18,60.03,93.444,286.47
3668,14,67.796,73.005,281.55
3669,14,67.84,72.575,281.9
3670,14,67.889,72.87,281.81
3671,14,67.998,72.757,282.09
3672,14,68.44,72.655,283.23
3673,14,68.522,73.031,283.21
3674,14,70.063,76.7,280.33
3675,14,70.252,76.913,280.31
3676,14,70.114,76.647,280.72
3677,14,70.302,76.861,280.68
3678,14,68.399,72.368,283.32
3679,14,68.532,72.615,283.58
3680,14,68.909,74.199,283.59
3681,14,69.039,74.492,283.55
3682,14,69.098,74.447,283.91
3683,14,69.201,74.742,283.6
3684,13,69.599,75.138,283.99
3685,13,69.466,74.857,284.31
3686,13,69.51,74.812,284.61
3687,13,69.649,75.08,284.35
3688,15,69.376,73.75,286.33
3689,15,69.492,74.061,286.31
3690,12,62.367,84.371,280.86
3691,12,62.531,84.612,280.7
3692,12,62.221,84.112,281.09
3693,12,62.444,84.298,281.15
3694,12,62.291,84.046,281.36
3695,12,62.638,84.51,281.09
3696,12,62.656,84.101,281.89
3697,12,62.916,84.292,281.95
3698,11,62.803,83.923,282.46
3699,12,62.718,84.014,282.16
3700,12,62.957,84.135,282.3
3701,11,62.665,83.679,282.69
3702,12,62.93,83.868,282.75
3703,11,62.73,83.593,282.96
3704,12,63.183,83.994,282.88
3705,12,63.08,84.08,282.58
3706,12,63.36,84.22,282.69
3707,12,60.77,81.958,283.67
3708,12,60.811,81.948,283.93
3709,12,60.782,81.963,284.18
3710,12,61.032,82.024,283.94
3711,12,63.162,83.209,284.49
3712,12,63.072,83.269,284.18
3713,12,63.339,83.382,284.32
3714,14,63.383,83.002,285.5
3715,14,63.736,83.12,285.54
3716,14,62.915,82.755,285.92
3717,14,63.217,82.822,286.04
3718,13,63.629,82.826,286.45
3719,14,63.141,82.859,285.74
3720,14,63.424,82.925,285.86
3721,14,63.776,83.014,285.9
3722,13,63.823,82.922,286.24
3723,12,64.182,84.252,283.52
3724,12,64.447,84.331,283.63
3725,12,63.965,84.02,283.74
3726,12,64.231,84.098,283.85
3727,12,65.224,83.972,284.86
3728,12,65.384,84.151,284.69
3729,12,65.597,84.396,284.48
3730,12,65.473,84.521,284.2
3731,12,65.758,84.609,284.31
3732,12,65.892,84.489,284.58
3733,13,64.161,83.43,285.14
3734,13,63.928,83.259,285.35
3735,13,64.215,83.311,285.46
3736,13,64.162,83.106,285.94
3737,12,65,83.757,285.09
3738,12,65.366,83.873,285.12
3739,12,73.308,79.451,280.36
3740,12,73.494,79.593,280.2
3741,20,67.342,84.233,285.93
3742,20,67.638,84.336,286.05
3743,20,67.484,84.106,286.19
3744,20,67.775,84.206,286.31
3745,20,68.506,85.079,286.01
3746,16,69.31,72.591,287.16
3747,16,69.368,72.982,287.14
3748,15,69.47,73.738,286.72
3749,16,69.459,73.377,287.14
3750,15,69.514,73.66,287.02
3751,16,69.441,72.942,287.5
3752,15,73.358,75.388,292.74
3753,15,73.492,75.642,292.6
3754,14,63.332,82.618,287.55
3755,14,63.725,82.602,287.54
3756,15,63.33,82.59,287.93
3757,14,63.714,82.546,287.92
3758,15,61.481,83.547,288.61
3759,15,62.153,83.084,288.74
3760,15,62.259,83.144,289.09
3761,15,62.05,83.332,289.15
3762,15,61.973,83.265,288.89
3763,15,62.314,83.224,289.37
3764,15,61.919,83.588,289.37
3765,15,63.333,82.578,288.32
3766,15,63.696,82.509,288.29
3767,15,63.331,82.585,288.71
3768,15,61.337,83.804,288.77
3769,15,61.57,83.638,288.9
3770,14,64.125,82.594,287.54
3771,14,64.528,82.592,287.53
3772,14,64.095,82.516,287.9
3773,14,64.487,82.493,287.88
3774,13,65.34,82.613,287.54
3775,13,65.351,82.509,287.81
3776,13,65.705,82.773,287.27
3777,20,66.556,83.053,287.11
3778,20,66.717,83.213,286.92
3779,20,66.977,83.288,286.99
3780,13,65.738,82.641,287.57
3781,20,66.139,82.714,287.57
3782,20,66.49,82.763,287.65
3783,20,66.772,82.826,287.71
3784,20,66.515,82.632,287.97
3785,22,68.92,84.629,286.77
3786,22,69.212,84.748,286.89
3787,22,69.069,84.503,287.03
3788,22,69.35,84.623,287.15
3789,19,67.84,82.509,291.14
3790,17,67.527,82.383,291.81
3791,19,67.825,82.508,291.56
3792,19,68.106,82.638,291.55
3793,17,67.738,82.511,291.98
3794,17,68.079,82.652,291.94
3795,16,67.377,82.467,292.39
3796,16,66.968,82.527,292.72
3797,16,67.332,82.588,292.7
3798,16,67.1,82.409,292.48
3799,15,69.356,82.996,291.97
3800,15,68.985,82.928,292.38
3801,17,69.359,82.984,292.36
3802,17,69.355,82.988,292.75
3803,17,69.743,83.037,292.36
3804,18,70.146,83.094,292.35
3805,17,69.746,83.025,292.75
3806,21,71.379,83.885,289.93
3807,21,71.732,83.939,290.03
3808,21,71.548,84.028,289.73
3809,21,71.812,84.089,289.78
3810,21,72.437,83.964,290.46
3811,21,72.318,84.058,290.18
3812,21,72.604,84.119,290.27
3813,20,70.433,83.223,291.67
3814,20,70.646,83.294,291.48
3815,20,71.001,83.352,291.53
3816,20,70.761,83.25,291.86
3817,18,70.935,83.168,292.74
3818,18,71.221,83.201,292.87
3819,12,73.552,79.552,280.51
3820,12,75.115,80.398,280.19
3821,13,76.567,81.467,281.55
3822,13,76.749,81.638,281.4
3823,14,75.769,80.663,282.77
3824,14,75.769,80.616,283.16
3825,14,75.973,80.809,282.93
3826,13,76.778,81.607,281.71
3827,15,78.973,82.447,282.28
3828,15,79.367,82.514,282.27
3829,15,78.916,82.281,282.77
3830,15,78.775,82.348,282.49
3831,15,79.318,81.263,285.01
3832,15,79.685,81.227,284.98
3833,15,79.333,81.105,285.27
3834,15,79.728,80.909,285.46
3835,15,79.763,80.285,286.37
3836,16,85.125,79.965,285.32
3837,16,84.83,80.022,285.39
3838,16,84.975,80.129,285.14
3839,16,84.574,79.45,286.36
3840,16,84.946,79.332,286.33
3841,16,84.725,79.567,286.12
3842,18,79.352,76.948,291.13
3843,18,79.779,76.889,291.13
3844,16,77.358,76.734,292.11
3845,16,77.336,76.881,291.85
3846,16,77.755,76.692,292.08
3847,16,77.71,76.84,291.82
3848,18,79.363,76.658,291.67
3849,18,79.316,76.801,291.41
3850,18,79.781,76.477,291.92
3851,18,79.789,76.642,291.59
3852,18,79.362,76.142,292.74
3853,18,79.781,76.093,292.74
3854,18,85.715,75.696,289.44
3855,18,85.762,75.906,289.23
3856,17,85.517,75.993,289.34
3857,20,85.807,74.607,290.36
3858,20,85.656,74.466,290.62
3859,20,85.513,74.324,290.87
3860,20,85.235,74.449,291
3861,17,82.548,76.651,290.83
3862,17,82.808,76.421,291
3863,20,82.954,76.564,290.74
3864,17,82.796,76.781,290.56
3865,18,80.178,76.602,291.58
3866,18,79.948,76.751,291.35
3867,17,81.772,75.853,292.39
3868,17,82.133,75.731,292.35
3869,17,82.185,75.889,292.08
3870,17,81.918,75.957,292.14
3871,21,82.564,75.472,292.38
3872,21,82.698,75.58,292.13
3873,21,82.419,75.677,292.22
3874,20,83.299,76.478,290.63
3875,20,83.355,76.653,290.41
3876,20,83.094,76.717,290.49
3877,15,79.788,79.925,286.89
3878,15,79.516,79.975,286.92
3879,15,79.211,80.017,286.96
3880,15,79.733,80.107,286.64
3881,15,79.361,80.143,286.73
3882,21,77.641,84.98,291.99
3883,21,77.723,84.952,292.35
3884,16,84.524,79.275,286.63
3885,11,64.903,86.228,281.55
3886,11,65.166,86.366,281.69
3887,11,65.037,86.493,281.42
3888,11,65.308,86.632,281.55
3889,11,65.583,86.768,281.68
3890,10,65.79,87.389,281.11
3891,10,66.128,87.507,281.22
3892,11,65.456,86.896,281.41
3893,11,65.739,87.02,281.54
3894,10,65.94,87.607,280.93
3895,11,71.589,89.238,282.89
3896,11,71.775,89.407,282.7
3897,11,72.01,89.621,282.47
3898,11,72.134,89.54,282.75
3899,20,68.319,85.211,285.74
3900,20,68.573,85.35,285.83
3901,22,68.891,85.881,285.62
3902,22,69.144,85.978,285.74
3903,22,68.96,86.151,285.44
3904,22,68.705,85.592,285.72
3905,21,71.205,87.173,286.09
3906,21,71.387,87.408,285.93
3907,21,71.506,87.266,286.19
3908,22,72.54,87.905,286.01
3909,22,72.344,88.016,285.72
3910,22,72.609,88.086,285.78
3911,22,72.601,87.734,286.3
3912,21,60.856,96.629,283.57
3913,21,60.799,96.745,283.29
3914,21,61.066,96.891,283.5
3915,20,61.469,97.313,283.43
3916,20,61.383,96.933,283.9
3917,20,61.729,97.436,283.58
3918,20,61.632,97.116,283.96
3919,20,61.56,97.216,283.71
3920,20,61.844,97.322,283.9
3921,21,62.156,97.789,283.54
3922,20,61.344,96.61,284.35
3923,20,61.243,96.708,284.06
3924,20,61.317,96.308,284.77
3925,17,61.194,96.379,284.5
3926,17,61.455,96.522,284.63
3927,20,61.131,96.015,284.96
3928,20,61.232,95.903,285.25
3929,20,61.503,96.045,285.38
3930,20,61.373,96.133,285.1
3931,18,63.748,97.406,285.1
3932,18,63.749,97.558,284.87
3933,18,63.481,97.217,285.34
3934,18,63.771,97.237,285.36
3935,18,64.954,97.551,284.39
3936,18,65.285,97.403,284.36
3937,18,65.32,97.528,284.01
3938,18,65.061,97.624,284.12
3939,18,66.435,97.129,284.04
3940,18,66.739,97.147,284.02
3941,18,66.672,97.21,283.77
3942,18,67.018,97.283,283.91
3943,18,60.794,90.775,289.31
3944,18,60.843,91.05,289.25
3945,18,62.161,87.401,291.1
3946,18,62.168,87.793,291.09
3947,18,62.186,88.186,291.07
3948,18,62.581,86.611,291.47
3949,18,63.014,86.606,291.83
3950,18,62.794,86.608,291.65
3951,18,62.577,87.003,291.47
3952,18,62.369,87.399,291.28
3953,18,62.564,90.607,290.68
3954,18,62.892,90.664,290.84
3955,18,62.666,90.897,290.62
3956,18,62.937,91.017,290.71
3957,18,63.432,88.982,291.86
3958,18,63.48,89.265,291.8
3959,18,63.73,89.406,291.9
3960,18,63.709,89.033,292.03
3961,18,64.308,89.632,292.18
3962,18,64.526,89.417,292.4
3963,18,64.579,89.76,292.27
3964,19,66.564,91.313,291.82
3965,19,66.955,91.112,292.02
3966,19,66.956,91.343,291.85
3967,21,72.906,86.291,288.05
3968,21,73.179,86.384,288.14
3969,21,72.958,86.517,287.87
3970,21,73.332,86.639,287.98
3971,19,67.349,91.356,291.86
3972,20,72.605,89.56,292.05
3973,20,72.329,89.606,292.1
3974,19,72.575,89.833,291.88
3975,19,72.184,89.848,291.99
3976,20,73.222,89.677,291.78
3977,19,72.132,90.129,291.84
3978,19,72.204,90.365,291.67
3979,19,71.928,90.417,291.72
3980,19,72.153,90.615,291.53
3981,19,72.424,90.081,291.78
3982,19,72.586,90.265,291.61
3983,20,73.33,90.134,291.45
3984,20,73.006,89.972,291.66
3985,19,72.732,90.022,291.72
3986,20,73.383,89.855,291.61
3987,18,60.956,92.22,288.73
3988,18,60.811,92.374,288.47
3989,18,61.05,92.52,288.63
3990,18,61.306,92.664,288.77
3991,20,65.314,95.708,287.44
3992,20,65.338,95.883,287.16
3993,20,65.721,95.831,287.16
3994,20,65.486,96.001,286.93
3995,19,63.315,92.22,290.29
3996,19,63.154,92.424,290.12
3997,19,63.446,92.487,290.2
3998,19,63.276,92.674,290.03
3999,19,65.283,92.783,290.5
4000,19,65.328,93.016,290.34
4001,19,65.558,92.809,290.53
4002,19,65.719,93.027,290.4
4003,19,65.744,92.136,291.05
4004,19,66.122,92.203,291.08
4005,19,65.962,92.393,290.91
4006,19,66.274,92.423,290.94
4007,21,72.162,94.194,288.67
4008,21,72.523,94.104,288.63
4009,21,72.32,94.383,288.49
4010,21,67.797,95.73,287.84
4011,21,67.739,95.92,287.61
4012,20,68.007,95.997,287.67
4013,23,68.597,96.098,287.78
4014,23,68.567,96.343,287.6
4015,23,68.919,97.805,286.76
4016,23,68.965,96.132,287.81
4017,23,68.96,96.379,287.65
4018,20,68.15,94.977,288.71
4019,20,68.537,94.988,288.71
4020,20,68.143,94.782,288.92
4021,20,68.532,94.786,288.91
4022,23,70.197,95.604,288.1
4023,23,70.157,95.855,287.96
4024,23,70.552,95.585,288.07
4025,23,70.541,95.836,287.93
4026,19,67.35,92.497,291
4027,19,67.353,92.726,290.81
4028,19,67.745,92.511,291
4029,19,67.745,92.735,290.82
4030,20,70.168,92.6,290.67
4031,20,69.305,93.31,290.21
4032,20,69.312,93.517,290.03
4033,20,69.695,93.27,290.18
4034,20,69.316,93.096,290.4
4035,20,70.54,92.523,290.65
4036,20,70.587,92.736,290.45
4037,20,70.321,92.779,290.48
4038,13,76.549,89.069,285.57
4039,13,76.555,88.769,286.05
4040,13,76.55,88.926,285.79
4041,13,76.936,89.069,285.52
4042,11,83.354,90.74,281.64
4043,11,83.756,90.719,281.61
4044,11,83.351,90.58,281.89
4045,11,83.745,90.545,281.89
4046,24,85.36,87.944,284.87
4047,24,85.442,88.012,284.6
4048,24,85.635,87.987,284.9
4049,24,85.832,88.063,284.73
4050,24,84.479,87.611,285.93
4051,24,84.418,87.668,286.19
4052,34,85.002,87.293,286.43
4053,24,84.721,87.719,285.97
4054,21,82.935,90.084,285.79
4055,21,82.543,89.67,286.17
4056,21,82.585,89.924,286
4057,21,82.839,89.621,286.13
4058,21,85.353,90.964,283.85
4059,21,85.518,91.11,283.64
4060,21,85.203,91.207,283.72
4061,18,86.026,91.2,283.32
4062,21,85.762,89.746,284.71
4063,21,86.055,89.63,284.62
4064,21,85.93,89.906,284.48
4065,21,85.413,90.716,284.05
4066,21,74.963,97.02,286.28
4067,21,75.306,96.9,286.2
4068,21,75.114,97.193,286.09
4069,23,78.929,95.775,284.69
4070,23,78.79,96.033,284.56
4071,23,78.504,96.156,284.68
4072,23,78.513,95.759,285.05
4073,23,78.779,95.634,284.95
4074,23,78.652,95.898,284.81
4075,17,85.233,92.085,282.97
4076,18,84.946,92.219,283.06
4077,17,85.109,92.366,282.84
4078,19,84.732,95.987,280.09
4079,20,82.528,92.185,284.62
4080,20,82.803,92.06,284.53
4081,20,82.695,92.355,284.42
4082,20,82.405,92.464,284.53
4083,19,81.002,94.247,284.36
4084,19,81.315,94.119,284.22
4085,19,81.379,94.33,284.02
4086,19,81.134,94.411,284.13
4087,22,80.447,94.493,284.59
4088,19,82.991,93.447,283.59
4089,20,80.939,91.793,285.84
4090,20,81.099,91.961,285.66
4091,20,80.82,92.086,285.79
4092,20,80.666,91.841,286
4093,22,80.106,92.193,286.23
4094,22,80.296,94.343,284.84
4095,22,80.17,94.614,284.71
4096,19,83.378,93.049,283.58
4097,17,84.996,91.948,283.23
4098,18,86.201,91.371,283.09
4099,19,83.321,93.387,283.42
4100,19,83.11,93.174,283.68
4101,22,74.949,87.933,287.24
4102,22,74.974,87.759,287.52
4103,22,75.319,87.992,287.27
4104,22,75.623,88.023,287.31
4105,22,75.356,87.526,288.04
4106,22,75.73,87.583,288.07
4107,22,75.128,87.651,287.76
4108,22,75.408,87.696,287.79
4109,13,74.846,86.721,288.87
4110,13,75.004,86.586,289.12
4111,13,75.368,86.679,289.21
4112,13,75.006,86.92,288.71
